# Results for "element" with Id # 92717 for search config "initial" at position: x0: 0; y0: -31.2568; z0: 249.9998
# time PRESSURE VELOCITY_X
0.03 1350.0999090869261 2.5879760260171426e-07
0.06 3860.9253511813695 1.1260076262041631e-06
0.09 7251.647996964147 2.9222290204479656e-06
0.12 11176.064574713242 5.887275763295028e-06
0.15 15255.228858642824 1.0155564581794419e-05
0.18 19112.173607355344 1.5745154963544237e-05
0.21 22405.3254406255 2.255641062807623e-05
0.24 24857.75490139106 3.0379610112390983e-05
0.27 26279.85933064793 3.89123017542706e-05
0.30000000000000004 26583.61429395379 4.778635981895932e-05
0.33000000000000007 25787.219688730183 5.660421677557904e-05
0.3600000000000001 24009.809187765914 6.498133717659558e-05
0.3900000000000001 21456.835902913557 7.258856461231028e-05
0.42000000000000015 18397.6915294201 7.918937497458973e-05
0.4500000000000002 15137.922460861513 8.46642122717131e-05
0.4800000000000002 11988.957698671256 8.901875841621544e-05
0.5100000000000002 9238.462985732614 9.237571725991373e-05
0.5400000000000003 7124.25599033386 9.495269877118396e-05
0.5700000000000003 5814.196970431205 9.703066692711539e-05
0.6000000000000003 5393.703005323378 9.891802330319166e-05
0.6300000000000003 5861.648788466031 0.00010091502599141217
0.6600000000000004 7134.538702994779 0.00010328235780094456
0.6900000000000004 9058.065823759913 0.00010621656807699014
0.7200000000000004 11424.57720810885 0.00010983410227839911
0.7500000000000004 13994.560649398274 0.00011416473942813892
0.7800000000000005 16520.05532975835 0.00011915444779685545
0.8100000000000005 18767.84499476899 0.00012467688618590336
0.8400000000000005 20540.400329022963 0.00013055198637193722
0.8700000000000006 21692.784201152193 0.00013656930534483645
0.9000000000000006 22144.111618451403 0.00014251326536247113
0.9300000000000006 21882.652875288102 0.00014818720267352188
0.9600000000000006 20964.257839348382 0.00015343339557061394
0.9900000000000007 19504.419649786243 0.00015814698904603714
1.0200000000000007 17664.911711905832 0.00016228273512474507
1.0500000000000007 15636.469555993823 0.00016585454336971405
1.0800000000000007 13619.356560015864 0.0001689287370450187
1.1100000000000008 11803.816949665907 0.00017161251961905332
1.1400000000000008 10352.354092845359 0.00017403944510357245
1.1700000000000008 9385.495239303727 0.00017635369892244382
1.2000000000000008 8972.261460171278 0.00017869483383080035
1.2300000000000009 9126.020504500233 0.000181184314308782
1.260000000000001 9805.830533338843 0.00018391491670096527
1.290000000000001 10922.85251047297 0.00018694366284967382
1.320000000000001 12350.960293384916 0.000190288646385765
1.350000000000001 13940.349156046977 0.0001939297819366341
1.380000000000001 15532.740877657929 0.00019781319727168268
1.410000000000001 16976.71287591882 0.0002018586966198963
1.440000000000001 18141.732480742543 0.00020596946348446922
1.470000000000001 18929.64581451824 0.00021004296911759387
1.500000000000001 19282.640370297544 0.0002139819210724276
1.5300000000000011 19187.051601050625 0.00021770409242432147
1.5600000000000012 18672.79144970207 0.00022114998622992452
1.5900000000000012 17808.600011769926 0.00022428757569767022
1.6200000000000012 16693.732059803682 0.00022711372892640037
1.6500000000000012 15447.021291880243 0.00022965235139791394
1.6800000000000013 14194.505059370522 0.00023194969384589015
1.7100000000000013 13056.892820970113 0.00023406760210554293
1.7400000000000013 12138.125041441397 0.00023607568426515607
1.7700000000000014 11516.10112432173 0.00023804341723834203
1.8000000000000014 11236.382530751482 0.0002400331355935615
1.8300000000000014 11309.337155668247 0.0002420946204052584
1.8600000000000014 11710.82688546051 0.00024426173583871804
1.8900000000000015 12386.190139208251 0.00024655122891007505
1.9200000000000015 13256.96891758139 0.0002489635164080712
1.9500000000000015 14229.601847329994 0.00025148505229860313
1.9800000000000015 15205.158589544193 0.00025409172315247043
2.0100000000000016 16089.139978564896 0.0002567526824648436
2.0400000000000014 16800.405678059393 0.00025943410173446646
2.070000000000001 17278.412319259493 0.0002621024656052002
2.100000000000001 17488.13642062994 0.0002647272154840671
2.130000000000001 17422.30103424874 0.00026728272615923754
2.1600000000000006 17100.79879477104 0.0002697497033542853
2.1900000000000004 16567.483191028183 0.0002721161446344189
2.22 15884.753905763258 0.0002743779663731672
2.25 15126.565574654674 0.00027653931511545285
2.28 14370.623555247164 0.00027861249726660075
2.3099999999999996 13690.579058064066 0.0002806174017877527
2.3399999999999994 13148.999272721581 0.0002825802931608935
2.369999999999999 12791.772783960625 0.00028453191516926755
2.399999999999999 12644.433605755012 0.0002865049655617774
2.429999999999999 12710.670115598328 0.0002885311286612585
2.4599999999999986 12973.055342093225 0.00029063798123696083
2.4899999999999984 13395.813379058212 0.0002928461456800127
2.5199999999999982 13929.24755265371 0.0002951670755327781
2.549999999999998 14515.314278800663 0.00029760179864927864
2.579999999999998 15093.740300022066 0.0003001408197127952
2.6099999999999977 15608.05843169794 0.00030276523028175306
2.6399999999999975 16010.974191327632 0.0003054489093966223
2.6699999999999973 16268.567755911052 0.00030816155008831934
2.699999999999997 16362.971934911364 0.00031087214024854565
2.729999999999997 16293.332576401866 0.00031355247035195685
2.7599999999999967 16075.03654924544 0.0003161802409401602
2.7899999999999965 15737.365929227974 0.0003187414109305925
2.8199999999999963 15319.887968925148 0.0003212315278558389
2.849999999999996 14868.002416108262 0.0003236559108580518
2.879999999999996 14428.133898395716 0.0003260287031503879
2.9099999999999957 14043.06844461479 0.0003283709425815171
2.9399999999999955 13747.893705374745 0.00033070790917263536
2.9699999999999953 13566.917799278444 0.00033306608322647717
2.999999999999995 13511.823376670234 0.00033547007862271255
3.029999999999995 13581.176168110736 0.00033793990667380124
3.0599999999999947 13761.264908582154 0.00034048887507038514
3.0899999999999945 14028.118794380744 0.00034312233632118256
3.1199999999999943 14350.438644193215 0.0003458373945961074
3.149999999999994 14693.102635340669 0.0003486235654989764
3.179999999999994 15020.86709312642 0.0003514642678327279
3.2099999999999937 15301.883729868012 0.0003543389348332912
3.2399999999999936 15510.692126974012 0.00035722546862426317
3.2699999999999934 15630.415870883648 0.0003601027348003525
3.299999999999993 15653.98404743429 0.0003629528068841219
3.329999999999993 15584.306201560254 0.0003657627144023859
3.3599999999999928 15433.438186263147 0.0003685255222012336
3.3899999999999926 15220.875327260794 0.00037124065919977105
3.4199999999999924 14971.19162477095 0.00037391350692489884
3.449999999999992 14711.297252953698 0.00037655433981134776
3.479999999999992 14467.611762397522 0.0003791767798113811
3.509999999999992 14263.442579282359 0.00038179597198709773
3.5399999999999916 14116.82179549931 0.00038442670432830206
3.5699999999999914 14038.993949598615 0.0003870816861073506
3.599999999999991 14033.671033895893 0.0003897701689685849
3.629999999999991 14097.086665814799 0.000392497042768497
3.659999999999991 14218.799039041933 0.0003952624755125799
3.6899999999999906 14383.119939798136 0.00039806210303450034
3.7199999999999904 14570.990190924256 0.0004008877106669858
3.7499999999999902 14762.087928547953 0.000403728300553416
3.77999999999999 14936.943910030192 0.00040657140043849974
3.80999999999999 15078.85030921889 0.00040940445303306987
3.8399999999999896 15175.382155543024 0.0004122161283828314
3.8699999999999894 15219.399757898675 0.000414997421140174
3.8999999999999893 15209.460221305068 0.0004177424262584821
3.929999999999989 15149.630270937543 0.0004204487308807853
3.959999999999989 15048.753515391507 0.0004231174062784099
3.9899999999999887 14919.277605255116 0.0004257526275430778
4.019999999999989 14775.7858891312 0.00042836098819876606
4.049999999999989 14633.399263287396 0.00043095060294436364
4.079999999999989 14506.218055614892 0.0004335301105502097
4.10999999999999 14405.959576887251 0.0004361076913102099
4.13999999999999 14340.917960578583 0.00043869020415698986
4.16999999999999 14315.332646774244 0.00044128252893594857
4.19999999999999 14329.205219195923 0.0004438871716388818
4.229999999999991 14378.556109782921 0.00044650415701777413
4.259999999999991 14456.069102343381 0.0004491312020444827
4.289999999999991 14552.03436243698 0.00045176413189332553
4.319999999999991 14655.476476773647 0.00045439747671246523
4.349999999999992 14755.341844642024 0.0004570251729102839
4.379999999999992 14841.621163277618 0.0004596412852209054
4.409999999999992 14906.29711544715 0.00046224066911401305
4.439999999999992 14944.031727772242 0.0004648195045868166
4.469999999999993 14952.53957397006 0.0004673756509186739
4.499999999999993 14932.628271503849 0.00046990879457306826
4.529999999999993 14887.922936008852 0.00047242038732231857
4.559999999999993 14824.321913376376 0.00047491339388686907
4.589999999999994 14749.25624675195 0.0004773918884391009
4.619999999999994 14670.840292027291 0.0004798605529111471
4.649999999999994 14597.006748981914 0.0004823241385958184
4.679999999999994 14534.714997862719 0.00048478695162803144
4.709999999999995 14489.308680861368 0.00048725241785423703
4.739999999999995 14464.078383441241 0.0004897227702298488
4.769999999999995 14460.060753605254 0.0004921988857936649
4.799999999999995 14476.079185688797 0.0004946802807135624
4.829999999999996 14509.006725413348 0.0004971652553448512
4.859999999999996 14554.209604211597 0.0004996511632851492
4.889999999999996 14606.114867863711 0.0005021347674836904
4.919999999999996 14658.83613002722 0.0005046126386476341
4.949999999999997 14706.79000404039 0.0005070815488265399
4.979999999999997 14745.241247363254 0.0005095388172237103
5.009999999999997 14770.725831018795 0.0005119825729131647
5.039999999999997 14781.316953622225 0.0005144119096753935
5.069999999999998 14776.717531550283 0.0005168269228277676
5.099999999999998 14758.181460270209 0.0005192286318590521
5.129999999999998 14728.282707982155 0.0005216188041937729
5.159999999999998 14690.566364462162 0.0005239997066409995
5.189999999999999 14649.124747679021 0.0005263738168562655
5.219999999999999 14608.14671836344 0.0005287435300659919
5.249999999999999 14571.487849051664 0.0005311108943211029
5.279999999999999 14542.30359905984 0.0005334774026066512
5.31 14522.778402771808 0.0005358438617355702
5.34 14513.9716055546 0.000538210347471467
5.37 14515.78772887057 0.0005405762463543014
5.4 14527.065807921763 0.0005429403736053783
5.430000000000001 14545.769987003358 0.0005453011472679394
5.460000000000001 14569.255416462029 0.0005476567963469013
5.490000000000001 14594.57702964618 0.0005500055774816989
5.520000000000001 14618.807060226307 0.0005523459743336018
5.550000000000002 14639.328515728848 0.0005546768575729145
5.580000000000002 14654.07659807078 0.0005569975908277988
5.610000000000002 14661.707452155382 0.0005593080748237723
5.640000000000002 14661.682375786473 0.0005616087278093532
5.670000000000003 14654.265082354346 0.0005639004083034338
5.700000000000003 14640.438376662154 0.0005661842927559181
5.730000000000003 14621.754616937524 0.0005684617253391137
5.760000000000003 14600.139606571931 0.0005707340595780237
5.790000000000004 14577.673142493224 0.0005730025093996491
5.820000000000004 14556.369855178498 0.0005752680262965945
5.850000000000004 14537.98240555569 0.0005775312147216641
5.880000000000004 14523.845148916316 0.0005797922929556299
5.910000000000005 14514.77096295052 0.0005820511009280455
5.940000000000005 14511.007594347522 0.000584307150866977
5.970000000000005 14512.253784369053 0.0005865597119898673
6.000000000000005 14517.728779365569 0.0005888079164588053
6.030000000000006 14526.284652338982 0.0005910508733386589
6.060000000000006 14536.54684202118 0.0005932877777604809
6.090000000000006 14547.066941190475 0.0005955180039776845
6.120000000000006 14556.47153986074 0.0005977411719397486
6.150000000000007 14563.592702286902 0.0005999571811555602
6.180000000000007 14567.568498894969 0.0006021662097120729
6.210000000000007 14567.905859450611 0.0006043686806371595
6.240000000000007 14564.502405311103 0.0006065652020140456
6.270000000000008 14557.628171897974 0.0006087564890190994
6.300000000000008 14547.872038039382 0.0006109432789191795
6.330000000000008 14536.060754356204 0.0006131262499322948
6.360000000000008 14523.160670402815 0.0006153059524394815
6.390000000000009 14510.173009752569 0.0006174827589373226
6.420000000000009 14498.033415781241 0.0006196568367658421
6.450000000000009 14487.525262409777 0.000621828146122389
6.480000000000009 14479.21415791277 0.0006239964617235372
6.51000000000001 14473.408349018773 0.0006261614139993574
6.54000000000001 14470.147322155848 0.0006283225449139733
6.57000000000001 14469.216939960044 0.000630479369180828
6.60000000000001 14470.188162434495 0.0006326314331094033
6.6300000000000106 14472.473834690354 0.0006347783642341756
6.660000000000011 14475.396378215335 0.0006369199058078345
6.690000000000011 14478.259525081967 0.0006390559345811689
6.720000000000011 14480.41665552621 0.0006411864627432061
6.7500000000000115 14481.329648808209 0.0006433116248403162
6.780000000000012 14480.613100159493 0.0006454316501729781
6.810000000000012 14478.06086552753 0.0006475468242803095
6.840000000000012 14473.653639525046 0.0006496574443641155
6.8700000000000125 14467.548282695903 0.0006517637761819062
6.900000000000013 14460.051223942379 0.0006538660178105737
6.930000000000013 14451.579299218105 0.0006559642731550703
6.960000000000013 14442.612866852674 0.0006580585379639271
6.9900000000000135 14433.645947887244 0.0006601487013597575
7.020000000000014 14425.138209957655 0.0006622345533276709
7.050000000000014 14417.473613686874 0.0006643158051591192
7.080000000000014 14410.92834282937 0.0006663921164591637
7.1100000000000145 14405.651074065745 0.0006684631275592435
7.140000000000015 14401.656588480582 0.0006705284935844388
7.170000000000015 14398.83234986156 0.0006725879134528148
7.200000000000015 14396.956740909665 0.0006746411492686024
7.2300000000000155 14395.726273448892 0.0006766880359959191
7.260000000000016 14394.789045860154 0.0006787284817110621
7.290000000000016 14393.78088367507 0.0006807624592779138
7.320000000000016 14392.36069618089 0.000682789991692929
7.3500000000000165 14390.241704271115 0.0006848111322647569
7.380000000000017 14387.215826892776 0.0006868259421559384
7.410000000000017 14383.169340721366 0.0006888344686840198
7.440000000000017 14378.089026476873 0.0006908367268873781
7.4700000000000175 14372.058247698504 0.0006928326860909351
7.500000000000018 14365.244199422661 0.0006948222637349798
7.530000000000018 14357.877755917236 0.0006968053269165459
7.560000000000018 14350.22822542917 0.0006987816997641962
7.5900000000000185 14342.575561906058 0.0007007511740114364
7.620000000000019 14335.182890223454 0.0007027135233113037
7.650000000000019 14328.271907491111 0.0007046685196536642
7.680000000000019 14322.003078882966 0.0007066159456676589
7.7100000000000195 14316.462587886333 0.0007085556058557846
7.74000000000002 14311.656981957189 0.0007104873388515776
7.77000000000002 14307.516224954063 0.0007124110284681638
7.80000000000002 14303.903555934843 0.0007143266065885368
7.8300000000000205 14300.631620467395 0.0007162340484510032
7.860000000000021 14297.482983232447 0.000718133362624243
7.890000000000021 14294.232862088667 0.0007200245798243098
7.920000000000021 14290.67158566338 0.0007219077425294404
7.9500000000000215 14286.62488915446 0.0007237828940142359
7.980000000000022 14281.96975718406 0.0007256500684626988
8.010000000000021 14276.644855731734 0.0007275092848245367
8.04000000000002 14270.654119547435 0.0007293605415733307
8.07000000000002 14264.063955076836 0.0007312038166679053
8.10000000000002 14256.994240508011 0.0007330390719282805
8.130000000000019 14249.604203828942 0.0007348662593373997
8.160000000000018 14242.0747825737 0.0007366853281807813
8.190000000000017 14234.589339204778 0.0007384962331225513
8.220000000000017 14227.314783689377 0.000740298943137205
8.250000000000016 14220.385194368268 0.0007420934489818643
8.280000000000015 14213.88917477889 0.0007438797667026881
8.310000000000015 14207.86262012901 0.000745657936507652
8.340000000000014 14202.28691117688 0.0007474280171902263
8.370000000000013 14197.092756921951 0.0007491900790876398
8.400000000000013 14192.16903560163 0.0007509441985459153
8.430000000000012 14187.37573142237 0.0007526904542555983
8.460000000000012 14182.55971067621 0.0007544289231062325
8.49000000000001 14177.571083444456 0.0007561596737295602
8.52000000000001 14172.278938605032 0.0007578827580590022
8.55000000000001 14166.584376250164 0.0007595982029044358
8.580000000000009 14160.429683930997 0.0007613060046585648
8.610000000000008 14153.80290445035 0.0007630061296203163
8.640000000000008 14146.737468668407 0.000764698518853917
8.670000000000007 14139.30689994774 0.0007663830959296183
8.700000000000006 14131.615690731276 0.0007680597721888499
8.730000000000006 14123.787068585925 0.0007697284487784015
8.760000000000005 14115.94935213335 0.0007713890190263577
8.790000000000004 14108.222054509428 0.0007730413693043611
8.820000000000004 14100.703593863034 0.000774685381088431
8.850000000000003 14093.461548992804 0.0007763209326749584
8.880000000000003 14086.526595443323 0.0007779478993995238
8.910000000000002 14079.89066756353 0.0007795661529818607
8.940000000000001 14073.509416136063 0.0007811755602473776
8.97 14067.308361085365 0.0007827759804587504
9.0 14061.192299812168 0.000784367263480641
9.03 14055.056326712587 0.000785949246509455
9.059999999999999 14048.797640515408 0.0007875217522638504
9.089999999999998 14042.326687001538 0.0007890845903636987
9.119999999999997 14035.576193183586 0.0007906375587207402
9.149999999999997 14028.507812328295 0.000792180449048582
9.179999999999996 14021.115171147594 0.0007937130509258329
9.209999999999996 14013.42315593726 0.0007952351561549295
9.239999999999995 14005.48401587424 0.0007967465662496583
9.269999999999994 13997.370251741248 0.0007982470989704838
9.299999999999994 13989.166039467764 0.0007997365927041194
9.329999999999993 13980.957359673857 0.0008012149134945597
9.359999999999992 13972.822533206408 0.0008026819609202573
9.389999999999992 13964.823798999709 0.0008041376748050848
9.419999999999991 13957.001015564409 0.0008055820413938066
9.44999999999999 13949.3683111554 0.0008070150991766106
9.47999999999999 13941.913600018202 0.0008084369415878034
9.50999999999999 13934.600714998707 0.0008098477192052311
9.539999999999988 13927.373944647132 0.0008112476468389137
9.569999999999988 13920.165009706774 0.000812637011052144
9.599999999999987 13912.901164669885 0.000814016175370504
9.629999999999987 13905.513527522653 0.0008153855822678499
9.659999999999986 13897.944072193586 0.0008167457557526432
9.689999999999985 13890.15106050144 0.0008180973102008774
9.719999999999985 13882.112706673972 0.000819440955862468
9.749999999999984 13873.828631583558 0.0008207775040675388
9.779999999999983 13865.319056566474 0.0008221078699597538
9.809999999999983 13856.62097065094 0.0008234330703561861
9.839999999999982 13847.783833668134 0.0008247542034796055
9.869999999999981 13838.86321170285 0.0008260724213009149
9.89999999999998 13829.913993152108 0.0008273889113099835
9.92999999999998 13820.983944803433 0.0008287048863272173
9.95999999999998 13812.109774747585 0.0008300215552908886
9.989999999999979 13803.315771428704 0.0008313400420428164
10.019999999999978 12598.909207341718 0.0008323538751953212
10.049999999999978 9825.308079668914 0.0008325464583659251
10.079999999999977 5919.446101158714 0.0008315348891604645
10.109999999999976 1425.404922481037 0.0008292047476201217
10.139999999999976 -3076.631944136483 0.0008256931194181808
10.169999999999975 -7043.500818444445 0.0008213191129903261
10.199999999999974 -10033.049017394605 0.0008164973967631896
