# Results for "element" with Id # 89315 for search config "initial" at position: x0: 8.9; y0: 29.7381; z0: 249.9998
# time PRESSURE VELOCITY_X
0.03 1344.723933223429 2.861752818235655e-07
0.06 3845.547078394494 1.2364501621859828e-06
0.09 7222.732073530863 3.194131011443605e-06
0.12 11131.411064625783 6.411966434991101e-06
0.15 15194.12004222546 1.1024146479466795e-05
0.18 19035.41719702816 1.7033208685444065e-05
0.21 22315.181475967012 2.4308794551571088e-05
0.24 24757.732614378285 3.259869366814243e-05
0.27 26174.38067939155 4.1552591190952697e-05
0.30000000000000004 26477.562209575924 5.075817622560415e-05
0.33000000000000007 25685.414674391704 5.97859039634458e-05
0.3600000000000001 23916.47933202715 6.823614699740535e-05
0.3900000000000001 21375.154257180882 7.578442611317504e-05
0.42000000000000015 18329.447653191226 8.221385260224055e-05
0.4500000000000002 15083.373399169897 8.743414124145072e-05
0.4800000000000002 11946.872701665603 9.148442816280048e-05
0.5100000000000002 9206.344450837812 9.452093277212673e-05
0.5400000000000003 7098.693991919936 9.679238680915932e-05
0.5700000000000003 5791.301279257577 9.860727649840841e-05
0.6000000000000003 5369.553831759897 0.00010029730821589148
0.6300000000000003 5832.715471256988 0.00010218128970764924
0.6600000000000004 7098.025591021416 0.00010453301947961934
0.6900000000000004 9012.159050029037 0.00010755598793463262
0.7200000000000004 11368.575295895616 0.00011136686468401469
0.7500000000000004 13928.88269512369 0.00011598892627971657
0.7800000000000005 16446.130292094702 0.00012135569053510427
0.8100000000000005 18687.896661660852 0.00012732403784317074
0.8400000000000005 20457.154338179476 0.00013369506155473857
0.8700000000000006 21609.13350790985 0.0001402399552929912
0.9000000000000006 22062.783706490696 0.00014672763664627284
0.9300000000000006 21805.920032422477 0.00015295068044506109
0.9600000000000006 20893.72525922926 0.00015874652602142518
0.9900000000000007 19440.909846502553 0.0001640117851260726
1.0200000000000007 17608.44984012986 0.00016870856592778917
1.0500000000000007 15586.3585371679 0.0001728628838411869
1.0800000000000007 13574.321143531322 0.00017655621551478673
1.1100000000000008 11762.19098496548 0.00017991194923660533
1.1400000000000008 10312.285135088756 0.00018307882689434654
1.1700000000000008 9345.144164493135 0.00018621348399171423
1.2000000000000008 8929.97867827777 0.00018946395661948289
1.2300000000000009 9080.486768000754 0.00019295563526254902
1.260000000000001 9756.153589640217 0.0001967807127057413
1.290000000000001 10868.616976437279 0.00020099171618396391
1.320000000000001 12292.230222727896 0.00020559932491465946
1.350000000000001 13877.626675011938 0.00021057430990663068
1.380000000000001 15466.887128819813 0.00021585312351895598
1.410000000000001 16908.84007356878 0.00022134639813196945
1.440000000000001 18073.07806440354 0.00022694940061744823
1.470000000000001 18861.440816527072 0.00023255334807200837
1.500000000000001 19215.985519182224 0.00023805643442826097
1.5300000000000011 19122.812920430555 0.00024337347265261005
1.5600000000000012 18611.526251322994 0.0002484432119344328
1.5900000000000012 17750.519947932033 0.00025323267211831385
1.6200000000000012 16638.705354568247 0.0002577381860000712
1.6500000000000012 15394.612357578964 0.0002619832355149225
1.6800000000000013 14144.0445785738 0.00026601354256667724
1.7100000000000013 13007.567959564123 0.0002698901735618141
1.7400000000000013 12089.07768084679 0.0002736816039447557
1.7700000000000014 11466.52217075507 0.00027745573922509733
1.8000000000000014 11185.591104385325 0.0002812728131603087
1.8300000000000014 11256.83734882044 0.00028517989084918846
1.8600000000000014 11656.337258026539 0.000289207446997901
1.8900000000000015 12329.64620142725 0.000293368168815378
1.9200000000000015 13198.502140128237 0.00029765784344082256
1.9500000000000015 14169.501127916026 0.00030205793071064646
1.9800000000000015 15143.821996440762 0.0003065392491868031
2.0100000000000016 16027.024586512684 0.0003110661432578611
2.0400000000000014 16737.981917895286 0.0003156005496812823
2.070000000000001 17216.126674962044 0.0003201055278530537
2.100000000000001 17426.384152776245 0.00032454801451680114
2.130000000000001 17361.407488970293 0.00032890076565210836
2.1600000000000006 17041.007524370994 0.0003331435891377059
2.1900000000000004 16508.947935052052 0.00033726405329678185
2.22 15827.532768506213 0.0003412578330056808
2.25 15070.617646876659 0.0003451287766856015
2.28 14315.809164393057 0.00034888867468874747
2.3099999999999996 13636.66614365937 0.00035255662654467505
2.3399999999999994 13095.677986162318 0.00035615787384349004
2.369999999999999 12738.679646807988 0.00035972200846868586
2.399999999999999 12591.184248048103 0.00036328057118422416
2.429999999999999 12656.898192673132 0.0003668641896478859
2.4599999999999986 12918.45265867218 0.00037049954515310445
2.4899999999999984 13340.166109530288 0.0003742065381991558
2.5199999999999982 13872.463219291269 0.0003779960523675372
2.549999999999998 14457.434920207297 0.00038186866316663483
2.579999999999998 15034.939661075441 0.0003858145175359961
2.6099999999999977 15548.623000013027 0.00038981444452470485
2.6399999999999975 15951.270434533995 0.00039384218130640683
2.6699999999999973 16208.999810168894 0.0003978674379282724
2.699999999999997 16303.935153664646 0.00040185940952417137
2.729999999999997 16235.168900499832 0.000405790291340256
2.7599999999999967 16017.997373886827 0.0004096383582123639
2.7899999999999965 15681.586525405415 0.0004133902495117302
2.8199999999999963 15265.376065032357 0.0004170422119739684
2.849999999999996 14814.641945530399 0.0004206001925462046
2.879999999999996 14375.702637785964 0.0004240788186838949
2.9099999999999957 13991.266962999332 0.0004274994336721484
2.9399999999999955 13696.381744604048 0.0004308874541863664
2.9699999999999953 13515.353599561875 0.00043426938196659864
2.999999999999995 13459.901453307226 0.00043766982334181726
3.029999999999995 13528.659282082508 0.00044110885323881343
3.0599999999999947 13708.006855013746 0.0004446000084553877
3.0899999999999945 13974.075964702082 0.000448149107547942
3.1199999999999943 14295.669632560348 0.0004517539942387939
3.149999999999994 14637.756281824471 0.0004554051931229021
3.179999999999994 14965.160984244883 0.0004590873607002112
3.2099999999999937 15246.075955049204 0.00046278132719671655
3.2399999999999936 15455.049871595887 0.0004664664658565082
3.2699999999999934 15575.184610064753 0.0004701230995765429
3.299999999999993 15599.360779460414 0.0004737346659608524
3.329999999999993 15530.419689490222 0.00047728940411615915
3.3599999999999928 15380.338082820641 0.0004807813963859983
3.3899999999999926 15168.530902007078 0.0004842108848786803
3.4199999999999924 14919.499581897979 0.00048758387243778986
3.449999999999992 14660.097332356474 0.0004909110981853858
3.479999999999992 14416.70778070023 0.0004942065447277946
3.509999999999992 14212.626129044294 0.0004974856759109506
3.5399999999999916 14065.89582379156 0.0005007636202777988
3.5699999999999914 13987.793590450721 0.0005040535048829109
3.599999999999991 13982.07946464023 0.0005073651142833873
3.629999999999991 14045.044632819327 0.0005107040006959757
3.659999999999991 14166.307501831056 0.0005140711102614574
3.6899999999999906 14330.235930493045 0.0005174629326338412
3.7199999999999904 14517.816906080323 0.0005208721213814645
3.7499999999999902 14708.760395172303 0.0005242884869144927
3.77999999999999 14883.612130169611 0.0005277002291917565
3.80999999999999 15025.66190199185 0.0005310952607784637
3.8399999999999896 15122.466356687135 0.0005344624711749872
3.8699999999999894 15166.85440819587 0.0005377928004381225
3.8999999999999893 15157.343045545287 0.0005410800180066001
3.929999999999989 15097.955065228518 0.0005443211419089318
3.959999999999989 14997.491324266368 0.0005475164781181285
3.9899999999999887 14868.362509854382 0.0005506693001836696
4.019999999999989 14725.124403148944 0.0005537852290385369
4.049999999999989 14582.88219284793 0.0005568713997948425
4.079999999999989 14455.733326384654 0.0005599355207885476
4.10999999999999 14355.404568444716 0.000562984934845746
4.13999999999999 14290.21004757641 0.0005660257852013665
4.16999999999999 14264.416915252972 0.000569062370416982
4.19999999999999 14278.058665793744 0.0005720967471010588
4.229999999999991 14327.18815733622 0.0005751286066114071
4.259999999999991 14404.51853643382 0.0005781554240742781
4.289999999999991 14500.363298994751 0.0005811728438679983
4.319999999999991 14603.762239209396 0.0005841752459232044
4.349999999999992 14703.667681161927 0.0005871564201954259
4.379999999999992 14790.066890697812 0.0005901102697297631
4.409999999999992 14854.930752716285 0.0005930314643890783
4.439999999999992 14892.902946944389 0.0005959159772789184
4.469999999999993 14901.675581983445 0.0005987614529830401
4.499999999999993 14882.032446453855 0.0006015673774846921
4.529999999999993 14837.576152255997 0.0006043350442263622
4.559999999999993 14774.186317833612 0.0006070673305273039
4.589999999999994 14699.280877920388 0.0006097683201456744
4.619999999999994 14620.96783243129 0.0006124428218319904
4.649999999999994 14547.180563357508 0.0006150958421184494
4.679999999999994 14484.885724274644 0.0006177320718045833
4.709999999999995 14439.439637797253 0.0006203554412277275
4.739999999999995 14414.149259271164 0.0006229687886310183
4.769999999999995 14410.069257156849 0.0006255736707630967
4.799999999999995 14426.040628479428 0.0006281703258852031
4.829999999999996 14458.951647563765 0.0006307577847430661
4.859999999999996 14504.179854288912 0.0006333341067526856
4.889999999999996 14556.158661060368 0.000635896707553746
4.919999999999996 14609.002695613706 0.0006384427353023361
4.949999999999997 14657.124467418997 0.000640969450474151
4.979999999999997 14695.78025807379 0.0006434745666895759
5.009999999999997 14721.494394986135 0.0006459565173441189
5.039999999999997 14732.326836564262 0.0006484146217428959
5.069999999999998 14727.967248236368 0.0006508491383757593
5.099999999999998 14709.657727747144 0.0006532612074385108
5.129999999999998 14679.963160297026 0.0006556526953417034
5.159999999999998 14642.42310566899 0.0006580259651922033
5.189999999999999 14601.128302707666 0.0006603836037890571
5.219999999999999 14560.26993197655 0.0006627281386361965
5.249999999999999 14523.709279982026 0.0006650617776107353
5.279999999999999 14494.61004965558 0.0006673862000604958
5.31 14475.166337212655 0.0006697024193355369
5.34 14466.447383478573 0.000672010727693337
5.37 14468.36674476433 0.0006743107254754733
5.4 14479.770609870302 0.0006766014275348135
5.430000000000001 14498.627711630332 0.0006788814285988577
5.460000000000001 14522.294884430874 0.000681149106275519
5.490000000000001 14547.825856531836 0.000683402835758181
5.520000000000001 14572.289133593738 0.0006856411907372028
5.550000000000002 14593.06207042979 0.0006878631087394479
5.580000000000002 14608.073080752001 0.0006900680056255103
5.610000000000002 14615.971284671894 0.0006922558304736091
5.640000000000002 14616.211558077199 0.0006944270583447148
5.670000000000003 14609.052518701053 0.000696582625142532
5.700000000000003 14595.47371970506 0.000698723815293443
5.730000000000003 14577.026346586692 0.0007008521181817496
5.760000000000003 14555.637134742576 0.0007029690718751481
5.790000000000004 14533.388754861373 0.0007050761111219661
5.820000000000004 14512.300215812531 0.0007071744373701064
5.850000000000004 14494.129507459522 0.0007092649247640904
5.880000000000004 14480.216632054906 0.0007113480699255817
5.910000000000005 14471.379796778701 0.0007134239878297828
5.940000000000005 14467.871193456596 0.0007154924510330967
5.970000000000005 14469.39269462481 0.0007175529657650363
6.000000000000005 14475.165154111239 0.0007196048721597489
6.030000000000006 14484.04064660194 0.0007216474544097162
6.060000000000006 14494.643145526365 0.0007236800482725027
6.090000000000006 14505.521605980499 0.0007257021351634709
6.120000000000006 14515.299245492262 0.0007277134127342167
6.150000000000007 14522.804527630959 0.0007297138346845176
6.180000000000007 14527.172177898676 0.0007317036158979817
6.210000000000007 14527.906512662958 0.0007336832038539972
6.240000000000007 14524.903530020623 0.0007356532234138661
6.270000000000008 14518.432739075695 0.000737614404424423
6.300000000000008 14509.083595795615 0.0007395675028155663
6.330000000000008 14497.684425448379 0.0007415132230144444
6.360000000000008 14485.203973310716 0.0007434521498560388
6.390000000000009 14472.646389174592 0.000745384696495778
6.420000000000009 14460.950443062577 0.0007473110724547163
6.450000000000009 14450.902482112002 0.0007492312760775062
6.480000000000009 14443.07064572446 0.000751145111294428
6.51000000000001 14437.765035938039 0.0007530522250781674
6.54000000000001 14435.02614213365 0.0007549521619790343
6.57000000000001 14434.639961272538 0.0007568444255732187
6.60000000000001 14436.176808410286 0.0007587285396803908
6.6300000000000106 14439.04824548251 0.0007606041020892171
6.660000000000011 14442.57504006038 0.0007624708249014053
6.690000000000011 14446.059173929136 0.0007643285573755064
6.720000000000011 14448.85225749689 0.0007661772923405628
6.7500000000000115 14450.414627110613 0.0007680171575877346
6.780000000000012 14450.359792418496 0.0007698483913507824
6.810000000000012 14448.481087329166 0.000771671307212367
6.840000000000012 14444.75932182 0.0007734862530707724
6.8700000000000125 14439.35205427301 0.0007752935698956896
6.900000000000013 14432.566785241072 0.0007770935546185952
6.930000000000013 14424.821627715946 0.0007788864315839592
6.960000000000013 14416.59830595728 0.0007806723373050649
6.9900000000000135 14408.392103260043 0.000782451317603838
7.020000000000014 14400.663881368688 0.0007842233340502567
7.050000000000014 14393.798337404303 0.0007859882766762432
7.080000000000014 14388.071983618893 0.000787745988163362
7.1100000000000145 14383.633401799132 0.0007894962979414944
7.140000000000015 14380.496826489672 0.0007912390625577355
7.170000000000015 14378.54877846594 0.0007929742005537567
7.200000000000015 14377.566346377842 0.0007947017128807357
7.2300000000000155 14377.244598705382 0.0007964216925471961
7.260000000000016 14377.230291667705 0.0007981343251918928
7.290000000000016 14377.158077104703 0.0007998398830775177
7.320000000000016 14376.68585462691 0.0008015387181203302
7.3500000000000165 14375.525967900387 0.0008032312480363196
7.380000000000017 14373.46970639387 0.0008049179348170853
7.410000000000017 14370.403043384726 0.0008065992608651622
7.440000000000017 14366.312677445563 0.0008082756984314282
7.4700000000000175 14361.282131475407 0.0008099476984430409
7.500000000000018 14355.47889852706 0.00081161569065202
7.530000000000018 14349.134058687476 0.0008132800801520377
7.560000000000018 14342.51686190382 0.0008149412494479604
7.5900000000000185 14335.906855971572 0.000816599569176332
7.620000000000019 14329.566319607668 0.0008182554136976945
7.650000000000019 14323.715555429904 0.0008199091759610129
7.680000000000019 14318.513234414375 0.0008215612840440727
7.7100000000000195 14314.0437698971 0.0008232122161145025
7.74000000000002 14310.312112745314 0.0008248625086795097
7.77000000000002 14307.246531421419 0.0008265127591898839
7.80000000000002 14304.708504076783 0.0008281636251691157
7.8300000000000205 14302.508988405438 0.0008298158197986136
7.860000000000021 14300.428921672556 0.0008314701053791827
7.890000000000021 14298.24192083827 0.0008331272839094391
7.920000000000021 14295.736778273567 0.0008347881831077613
7.9500000000000215 14292.738151442645 0.0008364536382779232
7.980000000000022 14289.122148113789 0.0008381244721926756
8.010000000000021 14284.82649895615 0.000839801482170068
8.04000000000002 14279.854263517007 0.0008414854329251891
8.07000000000002 14274.271031571763 0.0008431770525336323
8.10000000000002 14268.195481459245 0.0008448770364686004
8.130000000000019 14261.785214571755 0.0008465860588121657
8.160000000000018 14255.219584754364 0.0008483047800223944
8.190000000000017 14248.680568031197 0.0008500338493278291
8.220000000000017 14242.333752505418 0.0008517739049846902
8.250000000000016 14236.311774501155 0.0008535255763426519
8.280000000000015 14230.701709061117 0.0008552894860962424
8.310000000000015 14225.537728631085 0.0008570662536047025
8.340000000000014 14220.799263718365 0.0008588564958808579
8.370000000000013 14216.414964425938 0.0008606608237643619
8.400000000000013 14212.27177677812 0.0008624798358380517
8.430000000000012 14208.22797280884 0.0008643141107977704
8.460000000000012 14204.128985244697 0.0008661641973133488
8.49000000000001 14199.823707723746 0.0008680306008674907
8.52000000000001 14195.180164877014 0.0008699137707201433
8.55000000000001 14190.098313752853 0.0008718140933781508
8.580000000000009 14184.51922908866 0.000873731890914504
8.610000000000008 14178.429730746488 0.0008756674239096796
8.640000000000008 14171.862248858975 0.0008776208871489966
8.670000000000007 14164.889364073582 0.0008795924088300408
8.700000000000006 14157.614738212349 0.000881582051689268
8.730000000000006 14150.161023117265 0.0008835898123953612
8.760000000000005 14142.656069648105 0.0008856156197743068
8.790000000000004 14135.218970269209 0.0008876593341666862
8.820000000000004 14127.947625443188 0.0008897207516652136
8.850000000000003 14120.90907377757 0.0008917996109682313
8.880000000000003 14114.13365211642 0.0008938956008523698
8.910000000000002 14107.613219526662 0.0008960083642970416
8.940000000000001 14101.303409226663 0.0008981374985560722
8.97 14095.12976773523 0.0009002825569477955
9.0 14088.997085094514 0.0009024430530276474
9.03 14082.80059065516 0.0009046184661115565
9.059999999999999 14076.437799650696 0.0009068082452729787
9.089999999999998 14069.819561867864 0.0009090118141737895
9.119999999999997 14062.879154254706 0.0009112285818755092
9.149999999999997 14055.578779191374 0.000913457961082235
9.179999999999996 14047.912593233932 0.0009156993854309463
9.209999999999996 14039.905999564935 0.0009179523214749787
9.239999999999995 14031.611707045698 0.0009202162744896276
9.269999999999994 14023.102465866461 0.0009224907963516963
9.299999999999994 14014.463000073054 0.0009247754979165004
9.329999999999993 14005.77998315663 0.0009270700612758591
9.359999999999992 13997.132607408907 0.0009293742479122003
9.389999999999992 13988.5841470545 0.0009316879039222031
9.419999999999991 13980.175754360494 0.0009340109625664106
9.44999999999999 13971.922828952345 0.0009363434413121293
9.47999999999999 13963.814424128484 0.0009386854365411527
9.50999999999999 13955.81549255644 0.0009410371205648667
9.539999999999988 13947.871207866627 0.0009433987517268984
9.569999999999988 13939.913922818721 0.000945770689227556
9.599999999999987 13931.871495174253 0.0009481533963660628
9.629999999999987 13923.675779969475 0.0009505474298563413
9.659999999999986 13915.26953060853 0.0009529534251810445
9.689999999999985 13906.611453858783 0.0009553720948478868
9.719999999999985 13897.680815955315 0.0009578042245932765
9.749999999999984 13888.478391004224 0.0009602506672404112
9.779999999999983 13879.025837118343 0.0009627123162003629
9.809999999999983 13869.361435081246 0.0009651900829749632
9.839999999999982 13859.535442682409 0.00096768487836211
9.869999999999981 13849.604583908364 0.0009701975794717127
9.89999999999998 13839.62594441198 0.0009727289821009464
9.92999999999998 13829.649934703153 0.000975279761620952
9.95999999999998 13819.714514462463 0.0009778504605178595
9.989999999999979 13809.840084046633 0.000980441544083663
10.019999999999978 12610.898729625154 0.0009827051803897961
10.049999999999978 9850.694041410712 0.0009841052265629178
10.079999999999977 5962.682668896188 0.0009842546094905099
10.109999999999976 1487.0822726239192 0.0009830266469464937
10.139999999999976 -2999.3643248953676 0.0009805435524102102
10.169999999999975 -6955.899186215239 0.0009771118661803157
10.199999999999974 -9941.469585365514 0.0009731368542485108
