# Results for "element" with Id # 94421 for search config "initial" at position: x0: -8.9; y0: 29.7381; z0: 249.9998
# time PRESSURE VELOCITY_X
0.03 1355.5133641592472 2.5664224156272256e-07
0.06 3876.4034044264126 1.1137302046252707e-06
0.09 7280.7487964913025 2.884177120233562e-06
0.12 11221.010455953168 5.799270949878625e-06
0.15 15316.760029923604 9.984259992015216e-06
0.18 19189.505364747063 1.5447784023777923e-05
0.21 22496.221102333897 2.208184006194861e-05
0.24 24958.727664496877 2.9671976616968876e-05
0.27 26386.506147097483 3.7917826010913094e-05
0.30000000000000004 26691.064080535336 4.646313266564062e-05
0.33000000000000007 25890.653316024735 5.493262893527758e-05
0.3600000000000001 24104.98712398495 6.29715621623484e-05
0.3900000000000001 21540.560325050672 7.028283320371969e-05
0.42000000000000015 18468.136112641914 7.66569133858461e-05
0.4500000000000002 15194.784926177696 8.199091972979633e-05
0.4800000000000002 12033.420606281987 8.629474071730396e-05
0.5100000000000002 9272.979435618738 8.968400386882447e-05
0.5400000000000003 7152.201474822572 9.236144927306903e-05
0.5700000000000003 5839.442837536775 9.458966746869995e-05
0.6000000000000003 5420.168481665936 9.665898042431932e-05
0.6300000000000003 5892.883313204766 9.885443157311335e-05
0.6600000000000004 7173.374029504922 0.0001014255378415283
0.6900000000000004 9106.36658220332 0.00010456177779052115
0.7200000000000004 11483.105600880723 0.00010837597033924783
0.7500000000000004 14062.962116959556 0.00011289681608546502
0.7800000000000005 16596.961778700206 0.00011807094401485565
0.8100000000000005 18851.081539033534 0.0001237738356959236
0.8400000000000005 20627.270348621045 0.0001298280277688915
0.8700000000000006 21780.397254262985 0.00013602614847221486
0.9000000000000006 22229.71364844704 0.00014215578200312473
0.9300000000000006 21963.917388604455 0.00014802304944731793
0.9600000000000006 21039.50504918731 0.00015347216482057525
0.9900000000000007 19572.741659862142 0.00015839900362472117
1.0200000000000007 17726.198643076445 0.00016275772827732378
1.0500000000000007 15691.344795809502 0.00016656050127978662
1.0800000000000007 13669.040079242368 0.00016987113917843588
1.1100000000000008 11849.94144702188 0.00017279411667229882
1.1400000000000008 10396.759752193462 0.00017546060614338397
1.1700000000000008 9430.026799253887 0.00017801326980683175
1.2000000000000008 9018.586162861215 0.00018059139574909958
1.2300000000000009 9175.481192013136 0.00018331771033673275
1.260000000000001 9859.342220964882 0.00018628790722325826
1.290000000000001 10980.847056877972 0.00018956358047453523
1.320000000000001 12413.379370326717 0.00019316892148008496
1.350000000000001 14006.682412701897 0.00019709120410189
1.380000000000001 15602.103345837155 0.00020128476978068508
1.410000000000001 17047.95293880381 0.0002056779419745876
1.440000000000001 18213.559515730776 0.0002101820631085562
1.470000000000001 19000.764740657032 0.00021470168115083268
1.500000000000001 19351.880146843432 0.0002191448146191291
1.5300000000000011 19253.474494441554 0.0002234322499074689
1.5600000000000012 18735.77231964561 0.0002275049370371767
1.5900000000000012 17867.868226842587 0.00023132879547074173
1.6200000000000012 16749.372474130192 0.00023489655601943222
1.6500000000000012 15499.436907473786 0.00023822662506310565
1.6800000000000013 14244.347989816668 0.00024135930489255182
1.7100000000000013 13104.973510247819 0.0002443509784559956
1.7400000000000013 12185.311642582581 0.00024726705988054883
1.7700000000000014 11563.221754166494 0.00025017459834272295
1.8000000000000014 11284.140847258148 0.0002531353807704805
1.8300000000000014 11358.249943166287 0.00025620025250515355
1.8600000000000014 11761.188706121653 0.00025940519255689826
1.8900000000000015 12438.066248982946 0.00026276938073011675
1.9200000000000015 13310.214052208774 0.000266295230403421
1.9500000000000015 14283.898882967884 0.000269970139118024
1.9800000000000015 15260.069540632727 0.00027376952210776467
2.0100000000000016 16144.161277143763 0.0002776605826775001
2.0400000000000014 16855.020476907375 0.0002816062703612403
2.070000000000001 17332.134411866115 0.0002855689738351122
2.100000000000001 17540.543344704995 0.0002895136408414872
2.130000000000001 17473.055956511445 0.0002934101924455143
2.1600000000000006 17149.663120234745 0.00029723523113476456
2.1900000000000004 16614.32231547823 0.0003009731387437583
2.22 15929.538124376071 0.00030461667544221557
2.25 15169.367678154567 0.00030816715421582005
2.28 14411.612740094803 0.00031163420485359457
2.3099999999999996 13730.010158209132 0.0003150350800274399
2.3399999999999994 13187.195725232385 0.0003183934337178234
2.369999999999999 12829.102502723268 0.000321737525082676
2.399999999999999 12681.277883771158 0.00032509787919854415
2.429999999999999 12747.387745607237 0.0003285045346972362
2.4599999999999986 13009.945325347202 0.0003319841227625382
2.4899999999999984 13433.080901158306 0.00033555709415066025
2.5199999999999982 13966.97829378396 0.0003392354483587651
2.549999999999998 14553.460969417178 0.00034302128971987086
2.579999999999998 15132.124399466331 0.000346906445348009
2.6099999999999977 15646.387419516874 0.00035087324865357345
2.6399999999999975 16048.872896945815 0.0003548964342835194
2.6699999999999973 16305.620004807302 0.0003589459355764816
2.699999999999997 16398.76721302378 0.0003629902502654151
2.729999999999997 16327.511788721316 0.00036699995859884664
2.7599999999999967 16107.331085042943 0.0003709509546130723
2.7899999999999965 15767.625192014822 0.0003748269988174418
2.8199999999999963 15348.092034555555 0.0003786212895320244
2.849999999999996 14894.258944884312 0.00038233688452369706
2.879999999999996 14452.66009246322 0.0003859859573859262
2.9099999999999957 14066.160953430766 0.00038958801883038203
2.9399999999999955 13769.890581363305 0.0003931673569955817
2.9699999999999953 13588.157395373579 0.00039675003492184414
2.999999999999995 13532.605185720126 0.0004003608177625277
3.029999999999995 13601.72797207213 0.0004040203919606813
3.0599999999999947 13781.719668962323 0.00040774318381197146
3.0899999999999945 14048.503342206403 0.00041153599320301195
3.1199999999999943 14370.674948757049 0.00041539755594818383
3.149999999999994 14713.020656483095 0.00041931903525605993
3.179999999999994 15040.227314551443 0.0004232853376248151
3.2099999999999937 15320.406288207798 0.00042727706346167726
3.2399999999999936 15528.08900925489 0.00043127284188309244
3.2699999999999934 15646.422438509797 0.0004352517692967104
3.299999999999993 15668.386362829968 0.00043919567503805624
3.329999999999993 15596.961350343758 0.0004430909679162089
3.3599999999999928 15444.285637096178 0.0004469298772735282
3.3899999999999926 15229.938534729301 0.00045071098099885507
3.4199999999999924 14978.570080933394 0.0004544389966456844
3.449999999999992 14717.150546926714 0.000458123897605719
3.479999999999992 14472.137837343871 0.00046177949056162187
3.509999999999992 14266.852958268337 0.0004654216458446711
3.5399999999999916 14119.316817219284 0.0004690664005538615
3.5699999999999914 14040.740794336783 0.00047272815607491
3.599999999999991 14034.786794701185 0.00047641816958693504
3.629999999999991 14097.628084056 0.00048014349139024207
3.659999999999991 14218.759612565183 0.00048390643829887835
3.6899999999999906 14382.434195761998 0.0004877046272835818
3.7199999999999904 14569.54425073361 0.0004915315291197118
3.7499999999999902 14759.734669973468 0.0004953774459062432
3.77999999999999 14933.520802336923 0.0004992307757686064
3.80999999999999 15074.19780738707 0.0005030794052947695
3.8399999999999896 15169.360577521771 0.0005069120682719294
3.8699999999999894 15211.902914391312 0.0005107195244007282
3.8999999999999893 15200.424561409807 0.0005144954396912216
3.929999999999989 15139.03879151334 0.00051823689208723
3.959999999999989 15036.634344727476 0.0005219444719049962
3.9899999999999887 14905.69777649491 0.000525621992619005
4.019999999999989 14760.841216698094 0.0005292758683685958
4.049999999999989 14617.201745292115 0.0005329142472472098
4.079999999999989 14488.882289361456 0.0005365460108115355
4.10999999999999 14387.58972562882 0.0005401797576116258
4.13999999999999 14321.596671608499 0.0005438228827622346
4.16999999999999 14295.113022746866 0.0005474808480968425
4.19999999999999 14308.106510653062 0.0005511567107368374
4.229999999999991 14356.563379486515 0.0005548509446650005
4.259999999999991 14433.136640106177 0.0005585615563515791
4.289999999999991 14528.092231657582 0.0005622844627974179
4.319999999999991 14630.439348498472 0.0005660140741114008
4.349999999999992 14729.11893706517 0.0005697440041591953
4.379999999999992 14814.126146039958 0.000573467823919315
4.409999999999992 14877.456927473886 0.0005771797723810093
4.439999999999992 14913.793393626698 0.0005808753496422861
4.469999999999993 14920.874411931758 0.0005845517346099987
4.499999999999993 14899.533204218595 0.0005882079923818503
4.529999999999993 14853.41891798445 0.0005918450617613314
4.559999999999993 14788.449855527517 0.0005954655379337782
4.589999999999994 14712.070995105698 0.0005990732865830519
4.619999999999994 14632.403463856832 0.0006026729421290962
4.649999999999994 14557.379248789639 0.0006062693527188436
4.679999999999994 14493.950083056667 0.0006098670355874066
4.709999999999995 14447.446318756854 0.0006134697031353335
4.739999999999995 14421.141436972695 0.0006170799078641547
4.769999999999995 14416.053299344454 0.0006206988380567586
4.799999999999995 14430.987016098714 0.0006243262774398644
4.829999999999996 14462.799837478058 0.0006279607238053786
4.859999999999996 14506.846280222326 0.0006315996432963607
4.889999999999996 14557.546815165158 0.0006352398237721812
4.919999999999996 14609.01402684502 0.0006388777816118301
4.949999999999997 14655.668833523747 0.0006425101730899462
4.979999999999997 14692.784804463936 0.0006461341647775493
5.009999999999997 14716.909972645144 0.0006497477243917094
5.039999999999997 14726.131347405266 0.0006533498034471321
5.069999999999998 14720.165743555886 0.0006569403979898742
5.099999999999998 14700.279470787922 0.0006605204886493939
5.129999999999998 14669.056139775585 0.0006640918738255172
5.159999999999998 14630.046787841786 0.0006676569217336718
5.189999999999999 14587.3455370631 0.000671218273734151
5.219999999999999 14545.138986818183 0.0006747785357078486
5.249999999999999 14507.276880860732 0.0006783399929405044
5.279999999999999 14476.906175719714 0.0006819043796795408
5.31 14456.201232382697 0.0006854727262771371
5.34 14446.210972368886 0.0006890452965766002
5.37 14446.83038578472 0.0006926216166825137
5.4 14456.890855924139 0.0006962005851989208
5.430000000000001 14474.351479558825 0.000699780646678213
5.460000000000001 14496.565385130672 0.0007033600052442966
5.490000000000001 14520.588533677634 0.000706936851568889
5.520000000000001 14543.496918849018 0.000710509576025251
5.550000000000002 14562.679416515506 0.0007140769451277869
5.580000000000002 14576.078406794968 0.0007176382242579443
5.610000000000002 14582.357661919012 0.000721193235833444
5.640000000000002 14580.985661318002 0.0007247423497478242
5.670000000000003 14572.232060125749 0.0007282864113057554
5.700000000000003 14557.08376099261 0.0007318266190583973
5.730000000000003 14537.094982953662 0.000735364370231642
5.760000000000003 14514.191087285293 0.000738901094397584
5.790000000000004 14490.449337126229 0.0007424380942303372
5.820000000000004 14467.880176471912 0.0007459764117875712
5.850000000000004 14448.23104798083 0.0007495167342448894
5.880000000000004 14432.830724295312 0.0007530593465971292
5.910000000000005 14422.486793420458 0.000756604133111646
5.940000000000005 14417.442584694227 0.00076015062450082
5.970000000000005 14417.393730970904 0.0007636980821094346
6.000000000000005 14421.55794951637 0.0007672456064899504
6.030000000000006 14428.787382459854 0.0007707922569176056
6.060000000000006 14437.709026318576 0.00077433716807015
6.090000000000006 14446.877246377646 0.0007778796504793716
6.120000000000006 14454.92223829688 0.0007814192637770126
6.150000000000007 14460.680056743331 0.0007849558558174594
6.180000000000007 14463.292645245698 0.0007884895650438197
6.210000000000007 14462.270282782993 0.0007920207882196313
6.240000000000007 14457.513045446238 0.0007955501200318247
6.270000000000008 14449.292264329317 0.0007990782735746887
6.300000000000008 14438.196903187632 0.000802605992982565
6.330000000000008 14425.05264839351 0.0008061339686289326
6.360000000000008 14410.823846662943 0.0008096627634463784
6.390000000000009 14396.50908900886 0.0008131927581462381
6.420000000000009 14383.04110056067 0.000816724120575259
6.450000000000009 14371.200424010196 0.0008202568019952543
6.480000000000009 14361.550254240592 0.0008237905584346115
6.51000000000001 14354.397082522539 0.0008273249929305087
6.54000000000001 14349.779446945193 0.0008308596122961057
6.57000000000001 14347.483125379069 0.0008343938904613259
6.60000000000001 14347.07980660162 0.0008379273303485448
6.6300000000000106 14347.983696005538 0.0008414595162191752
6.660000000000011 14349.519083250634 0.0008449901525304305
6.690000000000011 14350.99185850355 0.000848519085604968
6.720000000000011 14351.757506394799 0.0008520463083456953
6.7500000000000115 14351.279686838596 0.000855571946876332
6.780000000000012 14349.174270759064 0.0008590962306724915
6.810000000000012 14345.235791947343 0.0008626194518816961
6.840000000000012 14339.44502294113 0.0008661419196063593
6.8700000000000125 14331.958347463404 0.0008696639151774217
6.900000000000013 14323.081226941571 0.000873185655086695
6.930000000000013 14313.229198879335 0.000876707265444163
6.960000000000013 14302.88120051325 0.0008802287670269888
6.9900000000000135 14292.529889496402 0.0008837500728002025
7.020000000000014 14282.633883301789 0.0008872709959305665
7.050000000000014 14273.576191922026 0.0008907912681447806
7.080000000000014 14265.632498006233 0.0008943105678842787
7.1100000000000145 14258.951557212778 0.0008978285539057591
7.140000000000015 14253.548807756057 0.000901344899437756
7.170000000000015 14249.312792096922 0.0009048593214600614
7.200000000000015 14246.023082184329 0.0009083716021550824
7.2300000000000155 14243.37741400323 0.0009118816010857746
7.260000000000016 14241.025095622237 0.0009153892562854334
7.290000000000016 14238.60302767176 0.0009188945755289332
7.320000000000016 14235.771013646876 0.0009223976198542209
7.3500000000000165 14232.2427926877 0.0009258984813068836
7.380000000000017 14227.810418140567 0.0009293972588814911
7.410000000000017 14222.360028074652 0.0009328940354946128
7.440000000000017 14215.877818045767 0.0009363888580120253
7.4700000000000175 14208.446719724747 0.0009398817246885401
7.500000000000018 14200.233741732725 0.0009433725759673251
7.530000000000018 14191.46953394903 0.00094686129179735
7.560000000000018 14182.423185696005 0.0009503476992868516
7.5900000000000185 14173.374549560122 0.0009538315865604086
7.620000000000019 14164.58672676555 0.0009573127186856707
7.650000000000019 14156.281305628485 0.0009607908537963717
7.680000000000019 14148.61874488123 0.0009642657597999892
7.7100000000000195 14141.68564203463 0.0009677372285253776
7.74000000000002 14135.489385341094 0.0009712050851171102
7.77000000000002 14129.96083651114 0.0009746691941572381
7.80000000000002 14124.964094409477 0.0009781294618850676
7.8300000000000205 14120.312595862388 0.0009815858333442487
7.860000000000021 14115.78954896232 0.0009850382846677433
7.890000000000021 14111.170572872697 0.000988486812067846
7.920000000000021 14106.24614462579 0.0009919314194755564
7.9500000000000215 14100.842172777684 0.00099537210390065
7.980000000000022 14094.835733283753 0.0009988088425582067
8.010000000000021 14088.165450023263 0.0010022415868270905
8.04000000000002 14080.835271912292 0.0010056702607499483
8.07000000000002 14072.911663436325 0.0010090947608788203
8.10000000000002 14064.51446017378 0.0010125149613529096
8.130000000000019 14055.80277434292 0.001015930723597965
8.160000000000018 14046.957631318035 0.0010193419040155538
8.190000000000017 14038.162838575987 0.001022748359309292
8.220000000000017 14029.586008598571 0.0010261499526838668
8.250000000000016 14021.361994919898 0.0010295465614947499
8.280000000000015 14013.580179060664 0.0010329380840169862
8.310000000000015 14006.277073004265 0.0010363244423178034
8.340000000000014 13999.43439333084 0.001039705581355387
8.370000000000013 13992.982915421619 0.0010430814658490618
8.400000000000013 13986.81154225693 0.0010464520763512994
8.430000000000012 13980.7803220282 0.0010498174044489153
8.460000000000012 13974.736187681512 0.001053177445470452
8.49000000000001 13968.529240941732 0.0010565321903845922
8.52000000000001 13962.028493427015 0.0010598816186689155
8.55000000000001 13955.13483604558 0.001063225694689028
8.580000000000009 13947.790249738327 0.0010665643677010876
8.610000000000008 13939.982532473985 0.0010698975756423777
8.640000000000008 13931.744980846815 0.0010732252485744637
8.670000000000007 13923.151069498146 0.0010765473134999118
8.700000000000006 13914.305311182605 0.0010798636978226015
8.730000000000006 13905.331125131563 0.0010831743300179924
8.760000000000005 13896.357078575304 0.0010864791399898335
8.790000000000004 13887.50295830959 0.0010897780623634209
8.820000000000004 13878.86737117846 0.001093071041297198
8.850000000000003 13870.518044923128 0.0010963580346021208
8.880000000000003 13862.485917297134 0.0010996390140663053
8.910000000000002 13854.763290609295 0.001102913961281286
8.940000000000001 13847.306078750571 0.0011061828631438518
8.97 13840.040017775395 0.0011094457104155464
9.0 13832.8700221242 0.0011127024983601207
9.03 13825.69132092267 0.0011159532264119712
9.059999999999999 13818.401256039973 0.0011191978961009766
9.089999999999998 13810.91034361016 0.0011224365094514128
9.119999999999997 13803.151513468136 0.001125669070242381
9.149999999999997 13795.086737773565 0.0011288955854431377
9.179999999999996 13786.710064968369 0.001132116063979257
9.209999999999996 13778.046881333072 0.0011353305164722946
9.239999999999995 13769.14987864262 0.0011385389574128828
9.269999999999994 13760.091907576489 0.0011417414129181464
9.299999999999994 13750.957784572336 0.001144937925660583
9.329999999999993 13741.834381289047 0.0011481285550874192
9.359999999999992 13732.801057203671 0.0011513133763488297
9.389999999999992 13723.921260020936 0.001154492479844731
9.419999999999991 13715.236342139302 0.0011576659678339042
9.44999999999999 13706.761801164403 0.0011608339496477524
9.47999999999999 13698.486666462442 0.001163996541049733
9.50999999999999 13690.375839360122 0.0011671538658480267
9.539999999999988 13682.374758280721 0.0011703060611642129
9.569999999999988 13674.41633875906 0.0011734532826843413
9.599999999999987 13666.429081234395 0.0011765957054505624
9.629999999999987 13658.34532806129 0.0011797335201317917
9.659999999999986 13650.108256623644 0.001182866931421537
9.689999999999985 13641.67720196302 0.0011859961659157622
9.719999999999985 13633.031837297533 0.0011891214758415016
9.749999999999984 13624.17329221965 0.0011922431369942674
9.779999999999983 13615.123125668073 0.0011953614438603851
9.809999999999983 13605.919376446285 0.001198476711457775
9.839999999999982 13596.611837487295 0.001201589277265946
9.869999999999981 13587.25616765801 0.0012046994916349385
9.89999999999998 13577.907566214073 0.001207807697610855
9.92999999999998 13568.614136804685 0.0012109142160290083
9.95999999999998 13559.411675697767 0.0012140193467906257
9.989999999999979 13550.319670270257 0.0012171233943156353
10.019999999999978 12339.415234636761 0.0012199126427589208
10.049999999999978 9551.674152035368 0.0012218459696983048
10.079999999999977 5627.250448436643 0.001222528269122964
10.109999999999976 1113.9672049043243 0.0012218577338605568
10.139999999999976 -3404.51780020603 0.0012199855387655708
10.169999999999975 -7382.457415528062 0.0012172233870620212
10.199999999999974 -10376.344927099679 0.0012139550913021512
