# Results for "element" with Id # 167603 for search config "initial" at position: x0: -29.7381; y0: 8.9; z0: 249.9998
# time PRESSURE VELOCITY_X
0.03 1367.9713336965738 1.9204134057112238e-07
0.06 3911.9990989806647 8.216420199358135e-07
0.09 7347.640226499646 2.108560337837373e-06
0.12 11324.276606569387 4.212988089098053e-06
0.15 15458.06563710204 7.218985333928441e-06
0.18 19367.008748673696 1.1126849840125653e-05
0.21 22704.753379032863 1.5852599150621908e-05
0.24 25190.269210749826 2.123501573520775e-05
0.27 26630.960738632904 2.7050448481653805e-05
0.30000000000000004 26937.285190658564 3.303579647493804e-05
0.33000000000000007 26127.624139476236 3.891736001178273e-05
0.3600000000000001 24323.01231160906 4.4441479097611474e-05
0.3900000000000001 21732.31008400029 4.9404961235762235e-05
0.42000000000000015 18629.397221192834 5.3675711080409294e-05
0.4500000000000002 15324.818158232412 5.720428755331265e-05
0.4800000000000002 12134.88836993806 6.002398530964638e-05
0.5100000000000002 9351.475210470817 6.224061287896061e-05
0.5400000000000003 7215.468495509454 6.401461040930713e-05
0.5700000000000003 5896.40310301768 6.55387589527371e-05
0.6000000000000003 5479.892602087147 6.701463436455685e-05
0.6300000000000003 5963.619974433294 6.863043913738517e-05
0.6600000000000004 7261.73565015431 7.05422357620704e-05
0.6900000000000004 9216.738775482574 7.286001071963964e-05
0.7200000000000004 11617.322340852064 7.563950604498792e-05
0.7500000000000004 14220.263724356748 7.888026890674274e-05
0.7800000000000005 16774.228472999166 8.252982991573047e-05
0.8100000000000005 19043.30984707245 8.6493304392884e-05
0.8400000000000005 20828.233625527562 9.064707721169038e-05
0.8700000000000006 21983.409286385897 9.485472377053108e-05
0.9000000000000006 22428.40028242631 9.89830673371342e-05
0.9300000000000006 22152.902171417474 0.00010291639799366435
0.9600000000000006 21214.9294126875 0.00010656732372407208
0.9900000000000007 19732.567882399682 0.00010988335737993481
1.0200000000000007 17870.278249388255 0.00011284904471355227
1.0500000000000007 15821.267228013074 0.00011548398069371733
1.0800000000000007 13787.803511081529 0.00011783745197827499
1.1100000000000008 11961.504072308537 0.0001199806529932276
1.1400000000000008 10505.535742635027 0.00012199750018680898
1.1700000000000008 9540.387490050123 0.00012397505215802022
1.2000000000000008 9134.41814562043 0.00012599448325608723
1.2300000000000009 9299.838845015407 0.00012812342355804091
1.260000000000001 9994.219307874662 0.00013041031715461498
1.290000000000001 11127.076437518435 0.00013288121103644115
1.320000000000001 12570.658028315594 0.00013553912705302547
1.350000000000001 14173.707270356277 0.00013836588942510238
1.380000000000001 15776.794265757308 0.00014132601539028577
1.410000000000001 17227.73278998343 0.00014437206849104723
1.440000000000001 18395.65791928688 0.00014745074808370623
1.470000000000001 19182.512766839085 0.00015050896765777123
1.500000000000001 19530.96636788677 0.0001534992382449687
1.5300000000000011 19428.140650557194 0.00015638384330195074
1.5600000000000012 18904.93449171718 0.00015913749276475115
1.5900000000000012 18031.159720247317 0.00016174838161789367
1.6200000000000012 16907.11286897825 0.00016421778601755422
1.6500000000000012 15652.538444247091 0.00016655847669701338
1.6800000000000013 14394.175062108176 0.0001687923092326811
1.7100000000000013 13253.173623273491 0.00017094736205359502
1.7400000000000013 12333.636662535022 0.0001730549489182549
1.7700000000000014 11713.356485421846 0.00017514675782087348
1.8000000000000014 11437.554592124578 0.00017725230290682248
1.8300000000000014 11516.082307467286 0.00017939680433738016
1.8600000000000014 11924.177546281302 0.00018159957671488446
1.8900000000000015 12606.520067874766 0.00018387296687746908
1.9200000000000015 13484.027279428583 0.00018622185903135726
1.9500000000000015 14462.603726445992 0.00018864374335051447
1.9800000000000015 15442.914868010128 0.00019112932063050452
2.0100000000000016 16330.207131638159 0.0001936635868380919
2.0400000000000014 17043.236970578553 0.00019622731580235263
2.070000000000001 17521.49563079142 0.0001987988368152249
2.100000000000001 17730.1091475305 0.00020135597548903724
2.130000000000001 17662.038280202534 0.00020387801664038335
2.1600000000000006 17337.47506506473 0.00020634752807019652
2.1900000000000004 16800.61090997428 0.00020875189202087637
2.22 16114.201442034851 0.00021108440015769176
2.25 15352.556779618966 0.00021334479873126694
2.28 14593.718361742787 0.00021553921920500535
2.3099999999999996 13911.633373014416 0.0002176794874276046
2.3399999999999994 13369.10234837479 0.00021978187406461794
2.369999999999999 13012.162001922467 0.0002218654088888206
2.399999999999999 12866.389970823931 0.00022394993660097953
2.429999999999999 12935.401642894132 0.00022605411546825096
2.4599999999999986 13201.579541584946 0.00022819357169153712
2.4899999999999984 13628.851820514688 0.00023037939600051993
2.5199999999999982 14167.146636567724 0.00023261713441819065
2.549999999999998 14758.003607268283 0.00023490636743007983
2.579999999999998 15340.73639353862 0.00023724090990651233
2.6099999999999977 15858.515711858236 0.00023960960183769952
2.6399999999999975 16263.778887738315 0.00024199759853637534
2.6699999999999973 16522.464367404573 0.00024438801951086407
2.699999999999997 16616.707186740052 0.000246763780444286
2.729999999999997 16545.799102541354 0.0002491094114829863
2.7599999999999967 16325.398198456025 0.00025141266544353546
2.7899999999999965 15985.149440695333 0.00025366574582330706
2.8199999999999963 15565.029643930338 0.0002558660208305784
2.849999999999996 15110.845208626683 0.0002580161520154296
2.879999999999996 14669.37651282158 0.00026012363277081623
2.9099999999999957 14283.674351269148 0.0002621998008566159
2.9399999999999955 13988.972723430114 0.0002642584524342043
2.9699999999999953 13809.595747519757 0.00026631422989966617
2.999999999999995 13757.11585772416 0.00026838097700269704
3.029999999999995 13829.881148330487 0.00027047025465880194
3.0599999999999947 14013.88559534707 0.0002725901830159539
3.0899999999999945 14284.82378713777 0.0002747447228869226
3.1199999999999943 14611.062166938089 0.00027693344702634583
3.149999999999994 14957.182144165963 0.00027915179993937304
3.179999999999994 15287.711806121713 0.00028139180498459084
3.2099999999999937 15570.664621236465 0.00028364312530555205
3.2399999999999936 15780.542311056777 0.0002858943376276387
3.2699999999999934 15900.529857920354 0.0002881342515054841
3.299999999999993 15923.704862329216 0.00029035313416823493
3.329999999999993 15853.191339745641 0.00029254371219928195
3.3599999999999928 15701.29829798114 0.0002947018471682322
3.3899999999999926 15487.782903615258 0.00029682682564934423
3.4199999999999924 15237.460080708195 0.0002989212506933726
3.449999999999992 14977.4345000749 0.0003009905712452576
3.479999999999992 14734.254772804105 0.00030304232228461523
3.509999999999992 14531.28137716295 0.00030508517803387776
3.5399999999999916 14386.522033643601 0.00030712793320289807
3.5699999999999914 14311.12683199377 0.00030917852900804024
3.599999999999991 14308.658015539622 0.0003112432335131485
3.629999999999991 14375.164153168196 0.0003133260609687791
3.659999999999991 14500.005720016068 0.00031542848014619546
3.6899999999999906 14667.306737959698 0.0003175494227823248
3.7199999999999904 14857.850347041143 0.0003196855702223925
3.7499999999999902 15051.202415696187 0.00032183186649468423
3.77999999999999 15227.83624212248 0.00032398218568928806
3.80999999999999 15371.044072545097 0.00032613006922264346
3.8399999999999896 15468.454796870526 0.0003282694500673208
3.8699999999999894 15513.027047980053 0.00033039528726566415
3.8999999999999893 15503.447143913094 0.00033250404689948875
3.929999999999989 15443.925914792797 0.00033459398880326377
3.959999999999989 15343.449400959627 0.00033666524115151975
3.9899999999999887 15214.590678653545 0.0003387196699691943
4.019999999999989 15072.028936588247 0.00034076056885985333
4.049999999999989 14930.942835237101 0.000342792213124275
4.079999999999989 14805.448542538374 0.0003448193336415217
4.10999999999999 14707.238222030091 0.00034684657235139733
4.13999999999999 14644.545190464542 0.00034887798073040497
4.16999999999999 14621.521264497942 0.00035091661427760486
4.19999999999999 14638.064830442754 0.0003529642613898326
4.229999999999991 14690.089714969852 0.0003550213278616656
4.259999999999991 14770.181486230465 0.00035708688038049567
4.289999999999991 14868.550601221674 0.00035915883439534047
4.319999999999991 14974.168004836625 0.00036123425602556733
4.349999999999992 15075.956732558507 0.00036330973667693265
4.379999999999992 15163.915092603247 0.0003653817946391843
4.409999999999992 15230.061634347512 0.00036744725828824807
4.439999999999992 15269.11685731397 0.0003695035906030636
4.469999999999993 15278.868655392256 0.0003715491237058662
4.499999999999993 15260.203898922344 0.0003735831839421888
4.529999999999993 15216.82387653856 0.0003756061008406108
4.559999999999993 15154.69190934209 0.00037761910743482036
4.589999999999994 15081.28636392364 0.0003796241488364805
4.619999999999994 15004.747174301567 0.00038162362378402984
4.649999999999994 14933.009394473323 0.0003836200941262559
4.679999999999994 14873.012664744747 0.0003856159966482418
4.709999999999995 14830.062383217313 0.0003876133837917534
4.739999999999995 14807.397735890698 0.00038961372219975033
4.769999999999995 14805.997255279699 0.0003916177722229932
4.799999999999995 14824.626447871206 0.00039362554716887134
4.829999999999996 14860.107206612573 0.0003956363500220533
4.859999999999996 14907.766469483675 0.0003976488943712935
4.889999999999996 14962.007432283674 0.00039966149152854946
4.919999999999996 15016.936995629529 0.0004016722729391992
4.949999999999997 15066.981919595335 0.0004036794170074833
4.979999999999997 15107.431832506605 0.000405681353917829
5.009999999999997 15134.858670957725 0.0004076769270881051
5.039999999999997 15147.37801721769 0.0004096654961733185
5.069999999999998 15144.736455383549 0.0004116469754472203
5.099999999999998 15128.227888730335 0.000413621808661421
5.129999999999998 15100.45837381272 0.00041559088762665146
5.159999999999998 15064.994061577454 0.00041755542787689885
5.189999999999999 15025.935587503252 0.00041951681766639
5.219999999999999 14987.467269760127 0.0004214764597922226
5.249999999999999 14953.428562284462 0.0004234356235584285
5.279999999999999 14926.949763871358 0.0004253953230537099
5.31 14910.184695677748 0.00042735622439692974
5.34 14904.160550995364 0.00042931858928509396
5.37 14908.751814424415 0.000431282271570216
5.4 14922.772764619143 0.00043324676566795377
5.430000000000001 14944.170484671125 0.0004352112957089729
5.460000000000001 14970.29223522189 0.00043717493126853904
5.490000000000001 14998.194549767246 0.0004391367137179883
5.520000000000001 15024.9599372187 0.0004410957770324803
5.550000000000002 15047.988756712693 0.00044305143885195247
5.580000000000002 15065.238307438925 0.0004450032567459156
5.610000000000002 15075.388730092161 0.0004469510578593261
5.640000000000002 15077.924292399473 0.0004488949421581242
5.670000000000003 15073.128066082794 0.00045083525933459364
5.700000000000003 15061.996664047318 0.0004527725585366937
5.730000000000003 15046.089490412545 0.0004547075171368248
5.760000000000003 15027.332322810815 0.00045664085852468664
5.790000000000004 15007.79833660347 0.0004585732674777887
5.820000000000004 14989.490199524256 0.00046050531419875734
5.850000000000004 14974.145071560051 0.00046243739508867554
5.880000000000004 14963.080262547233 0.00046436969868412435
5.910000000000005 14957.092101284015 0.0004663021992058655
5.940000000000005 14956.414158951126 0.00046823467588063243
5.970000000000005 14960.73481562096 0.00047016675280420905
6.000000000000005 14969.267679927845 0.00047209795479809886
6.030000000000006 14980.864242714228 0.00047402777021940027
6.060000000000006 14994.154231895769 0.0004759557104389053
6.090000000000006 15007.697583913752 0.0004778813625770609
6.120000000000006 15020.132072562512 0.0004798044296951547
6.150000000000007 15030.302327624613 0.00048172475540267883
6.180000000000007 15037.358800128453 0.00048364233213315556
6.210000000000007 15040.819202875049 0.0004855572941034753
6.240000000000007 15040.589195742741 0.0004874698964878898
6.270000000000008 15036.943323805226 0.0004893804827065975
6.300000000000008 15030.471213405423 0.0004912894434600692
6.330000000000008 15021.996924010518 0.0004931971634950751
6.360000000000008 15012.481281981542 0.0004951039633281222
6.390000000000009 15002.917828647447 0.0004970100626844875
6.420000000000009 14994.233280861989 0.0004989155707407947
6.450000000000009 14987.202006671494 0.0005008204953103897
6.480000000000009 14982.381630656317 0.0005027247605949116
6.51000000000001 14980.074358372594 0.0005046282277398627
6.54000000000001 14980.3162027962 0.0005065307135019722
6.57000000000001 14982.892412332782 0.0005084320069876666
6.60000000000001 14987.375971793803 0.0005103318916905842
6.6300000000000106 14993.183740695411 0.0005122301792423478
6.660000000000011 14999.643683868539 0.0005141267382734136
6.690000000000011 15006.065889432137 0.0005160215137206323
6.720000000000011 15011.810170821649 0.0005179145340112304
6.7500000000000115 15016.34409225686 0.0005198059079688665
6.780000000000012 15019.286523771834 0.0005216958118087482
6.810000000000012 15020.433747774303 0.0005235844713410095
6.840000000000012 15019.766873913744 0.0005254721410970029
6.8700000000000125 15017.441239426505 0.0005273590844809034
6.900000000000013 15013.76021033389 0.0005292455503397276
6.930000000000013 15009.13653995207 0.0005311317493887784
6.960000000000013 15004.045972214315 0.000533017838305664
6.9900000000000135 14998.977938719087 0.0005349039140717191
7.020000000000014 14994.388074358547 0.0005367900167095864
7.050000000000014 14990.65704141096 0.000538676140113297
7.080000000000014 14988.058979461568 0.0005405622481577336
7.1100000000000145 14986.741992556656 0.0005424482928833433
7.140000000000015 14986.721772098845 0.00054433423082074
7.170000000000015 14987.887894680636 0.0005462200392795033
7.200000000000015 14990.021533008867 0.0005481057349532532
7.2300000000000155 14992.822459804833 0.000549991377282631
7.260000000000016 14995.94228314587 0.0005518770516393366
7.290000000000016 14999.019970975804 0.0005537628597570524
7.320000000000016 15001.71673103675 0.0005556489212953136
7.3500000000000165 15003.746962588262 0.0005575353774455247
7.380000000000017 15004.902643457917 0.0005594223897602683
7.410000000000017 15005.06913069173 0.000561310131540909
7.440000000000017 15004.231414736527 0.0005631987733651395
7.4700000000000175 15002.470678638265 0.000565088468854522
7.500000000000018 14999.951817693815 0.00056697934483808
7.530000000000018 14996.903470952375 0.0005688714962565507
7.560000000000018 14993.593038430256 0.0005707649853891381
7.5900000000000185 14990.299090430648 0.0005726598469734684
7.620000000000019 14987.28392598438 0.0005745560994284594
7.650000000000019 14984.768853504096 0.0005764537593912873
7.680000000000019 14982.91452994076 0.0005783528544236848
7.7100000000000195 14981.808065780908 0.0005802534292824009
7.74000000000002 14981.457620729429 0.000582155545442037
7.77000000000002 14981.795012720724 0.0005840592794384493
7.80000000000002 14982.685353413392 0.0005859647228852886
7.8300000000000205 14983.94298201883 0.0005878719819184597
7.860000000000021 14985.351760129986 0.000589781175501616
7.890000000000021 14986.687671964211 0.0005916924317179611
7.920000000000021 14987.74124965323 0.0005936058821871539
7.9500000000000215 14988.337952999898 0.0005955216557328429
7.980000000000022 14988.35408058101 0.0005974398723313551
8.010000000000021 14987.727309862701 0.0005993606371223317
8.04000000000002 14986.460576758487 0.0006012840351939009
8.07000000000002 14984.619299643446 0.0006032101299246284
8.10000000000002 14982.322465062332 0.0006051389661626284
8.130000000000019 14979.728619353813 0.0006070705766444319
8.160000000000018 14977.018380026608 0.0006090049882785247
8.190000000000017 14974.37531160125 0.0006109422250842204
8.220000000000017 14971.967035830134 0.0006128823098097582
8.250000000000016 14969.928669623885 0.0006148252642844701
8.280000000000015 14968.35004986733 0.0006167711120960127
8.310000000000015 14967.268181001895 0.0006187198820427364
8.340000000000014 14966.665257067489 0.0006206716123596485
8.370000000000013 14966.47251039087 0.0006226263491636322
8.400000000000013 14966.579225340558 0.0006245841398276797
8.430000000000012 14966.845648685961 0.0006265450273677119
8.460000000000012 14967.118633422513 0.000628509045915092
8.49000000000001 14967.247978575622 0.0006304762179284424
8.52000000000001 14967.10208787443 0.0006324465557514695
8.55000000000001 14966.58109238591 0.0006344200641335821
8.580000000000009 14965.626235053875 0.0006363967384742649
8.610000000000008 14964.22468261939 0.0006383765611093571
8.640000000000008 14962.409227861646 0.0006403594974909986
8.670000000000007 14960.252999811353 0.0006423454975142818
8.700000000000006 14957.860217581572 0.000644334500253015
8.730000000000006 14955.353966258037 0.0006463264414513129
8.760000000000005 14952.862521658662 0.0006483212562444666
8.790000000000004 14950.505514408667 0.0006503188814405143
8.820000000000004 14948.381487650275 0.0006523192562924953
8.850000000000003 14946.558175298676 0.0006543223221854747
8.880000000000003 14945.066440948862 0.0006563280219996871
8.910000000000002 14943.898392611243 0.0006583363000395468
8.940000000000001 14943.009692752694 0.0006603471029680305
8.97 14942.325773271343 0.0006623603816140911
9.0 14941.751277223128 0.0006643760875838421
9.03 14941.181111123786 0.0006663941704062665
9.059999999999999 14940.512213680144 0.0006684145771402811
9.089999999999998 14939.654653097788 0.000670437254278737
9.119999999999997 14938.540902611245 0.0006724621508360952
9.149999999999997 14937.13244153452 0.0006744892204889288
9.179999999999996 14935.42283291642 0.0006765184213392962
9.209999999999996 14933.437077944012 0.0006785497157878674
9.239999999999995 14931.227625309431 0.0006805830705476966
9.269999999999994 14928.867384164261 0.000682618460493274
9.299999999999994 14926.441140755416 0.0006846558744319139
9.329999999999993 14924.035795313526 0.0006866953131450674
9.359999999999992 14921.730772088322 0.0006887367886945117
9.389999999999992 14919.589583375473 0.0006907803248175904
9.419999999999991 14917.653542983671 0.0006928259554416305
9.44999999999999 14915.938137995592 0.0006948737240581426
9.47999999999999 14914.432422714235 0.0006969236834939249
9.50999999999999 14913.101293417534 0.0006989758958067288
9.539999999999988 14911.890256977018 0.0007010304345053489
9.569999999999988 14910.73234388011 0.000703087385039326
9.599999999999987 14909.556159817546 0.000705146844446922
9.629999999999987 14908.294056688981 0.0007072089201976973
9.659999999999986 14906.889240745624 0.0007092737314096282
9.689999999999985 14905.301301415484 0.0007113414131152048
9.719999999999985 14903.51003089659 0.0007134121180844485
9.749999999999984 14901.516649246938 0.0007154860179270181
9.779999999999983 14899.342761462376 0.000717563304028734
9.809999999999983 14897.026621430316 0.0007196441901397039
9.839999999999982 14894.6182398838 0.0007217289070213686
9.869999999999981 14892.17325380495 0.0007238176939120031
9.89999999999998 14889.746382035915 0.0007259107920352095
9.92999999999998 14887.385091941143 0.000728008443933025
9.95999999999998 14885.12481911279 0.0007301108870953852
9.989999999999979 14882.985574186418 0.0007322183457960743
10.019999999999978 13662.748305701089 0.0007340084488035275
10.049999999999978 10846.214569061403 0.0007351139672524887
10.079999999999977 6881.871251099591 0.0007353789085982364
10.109999999999976 2325.952234370402 0.0007348285730782413
10.139999999999976 -2230.774137521361 0.000733590885676798
10.169999999999975 -6237.500759406162 0.0007318360466645301
