# Results for "element" with Id # 2719559 for search config "initial" at position: x0: 125; y0: 0; z0: 90.5172413793
# time VELOCITY_X
0.03 0.006879389322173678
0.06 0.0288204819041159
0.09 0.07296257320384521
0.12 0.1442810961100784
0.15 0.24506759625081703
0.18 0.3748118702411572
0.21 0.5304001574787842
0.24 0.7065585428879227
0.27 0.8964640982626526
0.30000000000000004 1.092443566676211
0.33000000000000007 1.2866859777212079
0.3600000000000001 1.4719096785169958
0.3900000000000001 1.641940400037972
0.42000000000000015 1.7921701589089394
0.4500000000000002 1.9198760576225755
0.4800000000000002 2.0243837387506285
0.5100000000000002 2.1070655208114664
0.5400000000000003 2.171171157074949
0.5700000000000003 2.22150100776197
0.6000000000000003 2.2639470158108503
0.6300000000000003 2.3049421366549385
0.6600000000000004 2.3508704906117623
0.6900000000000004 2.4074953159182075
0.7200000000000004 2.479458303780736
0.7500000000000004 2.5698932037385642
0.7800000000000005 2.6801822194858644
0.8100000000000005 2.8098689838235424
0.8400000000000005 2.9567293378510655
0.8700000000000006 3.1169915385062867
0.9000000000000006 3.285689238109378
0.9300000000000006 3.4571226066538716
0.9600000000000006 3.6253938403087935
0.9900000000000007 3.784972780647064
1.0200000000000007 3.9312397308561544
1.0500000000000007 4.060948185653836
1.0800000000000007 4.172553468785138
1.1100000000000008 4.266365339852292
1.1400000000000008 4.344502651949041
1.1700000000000008 4.4106527180006285
1.2000000000000008 4.4696629703181765
1.2300000000000009 4.527012846399871
1.260000000000001 4.58822653762355
1.290000000000001 4.658292137862174
1.320000000000001 4.741148855697017
1.350000000000001 4.839294544194404
1.380000000000001 4.953551934036537
1.410000000000001 5.083015622374645
1.440000000000001 5.225183990651027
1.470000000000001 5.376261737129724
1.500000000000001 5.531600468256986
1.5300000000000011 5.686228792198807
1.5600000000000012 5.835411662673972
1.5900000000000012 5.975173525659217
1.6200000000000012 6.102723191789091
1.6500000000000012 6.216730311587339
1.6800000000000013 6.317422750508949
1.7100000000000013 6.406498011694606
1.7400000000000013 6.486866144603293
1.7700000000000014 6.562262458326716
1.8000000000000014 6.636782956813591
1.8300000000000014 6.714401868019516
1.8600000000000014 6.798529027144185
1.8900000000000015 6.8916564610728255
1.9200000000000015 6.9951297659269205
1.9500000000000015 7.109063423079558
1.9800000000000015 7.232401596489978
2.0100000000000016 7.36310922198841
2.0400000000000014 7.498463962847834
2.070000000000001 7.635409253397163
2.100000000000001 7.770923192979247
2.130000000000001 7.902358432517189
2.1600000000000006 8.027714182404193
2.1900000000000004 8.145812376991227
2.22 8.256364124506488
2.25 8.359927512278146
2.28 8.45777169057614
2.3099999999999996 8.55167244731747
2.3399999999999994 8.643670450951106
2.369999999999999 8.735824345329883
2.399999999999999 8.829987690546167
2.429999999999999 8.927632218022296
2.4599999999999986 9.02973154895668
2.4899999999999984 9.136710712368373
2.5199999999999982 9.248458659573322
2.549999999999998 9.36439450916469
2.579999999999998 9.4835736396477
2.6099999999999977 9.604817617534152
2.6399999999999975 9.726851807326991
2.6699999999999973 9.848436233055166
2.699999999999997 9.96847824675
2.729999999999997 10.086119125122663
2.7599999999999967 10.20079052454258
2.7899999999999965 10.312239966809136
2.8199999999999963 10.420527226492323
2.849999999999996 10.52599525187292
2.879999999999996 10.629220495732017
2.9099999999999957 10.730948035109744
2.9399999999999955 10.832017145657707
2.9699999999999953 10.933283036808533
2.999999999999995 11.03554040721495
3.029999999999995 11.139454399082302
3.0599999999999947 11.245504061436423
3.0899999999999945 11.353942962272223
3.1199999999999943 11.464780441444054
3.149999999999994 11.577785607844552
3.179999999999994 11.692514195091228
3.2099999999999937 11.808356284947653
3.2399999999999936 11.92460064731821
3.2699999999999934 12.040509470977565
3.299999999999993 12.155395810572191
3.329999999999993 12.268695382587868
3.3599999999999928 12.38002478299454
3.3899999999999926 12.489219400209693
3.4199999999999924 12.596346644635327
3.449999999999992 12.701692929221258
3.479999999999992 12.805726047171708
3.509999999999992 12.909037578448222
3.5399999999999916 13.012272348683313
3.5699999999999914 13.11605350410297
3.599999999999991 13.220912177887413
3.629999999999991 13.327229961808435
3.659999999999991 13.435200695722397
3.6899999999999906 13.544815524437821
3.7199999999999904 13.655872217579994
3.7499999999999902 13.768006806139374
3.77999999999999 13.880742891050872
3.80999999999999 13.993551991553858
3.8399999999999896 14.105917243809705
3.8699999999999894 14.217392650812668
3.8999999999999893 14.327650970250968
3.929999999999989 14.436515082308222
3.959999999999989 14.543969925648687
3.9899999999999887 14.650154669489144
4.019999999999989 14.755337211421493
4.049999999999989 14.859875088134125
4.079999999999989 14.964168312021542
4.10999999999999 15.068610245558688
4.13999999999999 15.173542447618535
4.16999999999999 15.279218544827339
4.19999999999999 15.385780740863638
4.229999999999991 15.493250852181456
4.259999999999991 15.601535856718296
4.289999999999991 15.710446320086756
4.319999999999991 15.819724584227819
4.349999999999992 15.929078775894654
4.379999999999992 16.03821826629028
4.409999999999992 16.14688639053791
4.439999999999992 16.254886873979764
4.469999999999993 16.36210140706212
4.499999999999993 16.468497039735514
4.529999999999993 16.574123329847968
4.559999999999993 16.679100374752473
4.589999999999994 16.78359978416213
4.619999999999994 16.887821295634264
4.649999999999994 16.9919680116663
4.679999999999994 17.096223144297692
4.709999999999995 17.2007307570845
4.739999999999995 17.30558234425414
4.769999999999995 17.410810273188815
4.799999999999995 17.516388293492902
4.829999999999996 17.622238496589244
4.859999999999996 17.728243474174363
4.889999999999996 17.83426193760915
4.919999999999996 17.940145827618533
4.949999999999997 18.0457568835001
4.979999999999997 18.150980883445555
5.009999999999997 18.25573817961164
5.039999999999997 18.359989650981394
5.069999999999998 18.463737746210104
5.099999999999998 18.567022863111504
5.129999999999998 18.66991579861778
5.159999999999998 18.772507377141473
5.189999999999999 18.87489658771659
5.219999999999999 18.977178647339283
5.249999999999999 19.079434325248435
5.279999999999999 19.181721591324635
5.31 19.28407033529574
5.34 19.386480546736227
5.37 19.488923926347738
5.4 19.591348525444896
5.430000000000001 19.693685712102717
5.460000000000001 19.79585850182795
5.490000000000001 19.897790263117653
5.520000000000001 19.99941281122523
5.550000000000002 20.100673016331935
5.580000000000002 20.20153725846635
5.610000000000002 20.301993394530236
5.640000000000002 20.402050178846668
5.670000000000003 20.50173436922592
5.700000000000003 20.601085958314904
5.730000000000003 20.700152194972986
5.760000000000003 20.79898117849824
5.790000000000004 20.897615792403716
5.820000000000004 20.996088602358693
5.850000000000004 21.09441825934848
5.880000000000004 21.19260772821752
5.910000000000005 21.290644404342633
5.940000000000005 21.38850199006322
5.970000000000005 21.486143839183853
6.000000000000005 21.583527267981967
6.030000000000006 21.680608249382374
6.060000000000006 21.777345917692493
6.090000000000006 21.873706386846223
6.120000000000006 21.96966550543989
6.150000000000007 22.065210304811927
6.180000000000007 22.160339053176845
6.210000000000007 22.255059992257184
6.240000000000007 22.349388993162105
6.270000000000008 22.443346514698163
6.300000000000008 22.536954248271492
6.330000000000008 22.630231829911057
6.360000000000008 22.723193990174032
6.390000000000009 22.81584847101929
6.420000000000009 22.90819490023813
6.450000000000009 23.000224681778683
6.480000000000009 23.091921876778613
6.51000000000001 23.183264877607876
6.54000000000001 23.274228580025568
6.57000000000001 23.364786808402435
6.60000000000001 23.454914758753983
6.6300000000000106 23.544591125959414
6.660000000000011 23.633799641798024
6.690000000000011 23.722529928971174
6.720000000000011 23.810777625449727
6.7500000000000115 23.89854378204792
6.780000000000012 23.985833725035796
6.810000000000012 24.07265549793221
6.840000000000012 24.159018134439517
6.8700000000000125 24.244929990376235
6.900000000000013 24.330397313828463
6.930000000000013 24.415423278362393
6.960000000000013 24.500007520363493
6.9900000000000135 24.58414614807849
7.020000000000014 24.667832221824884
7.050000000000014 24.751056597060053
7.080000000000014 24.83380905442002
7.1100000000000145 24.91607958153082
7.140000000000015 24.997859633043145
7.170000000000015 25.079143271579852
7.200000000000015 25.159928055726496
7.2300000000000155 25.24021553169616
7.260000000000016 25.320011378574602
7.290000000000016 25.399325226293197
7.320000000000016 25.478170176593302
7.3500000000000165 25.556562053460386
7.380000000000017 25.634518497035508
7.410000000000017 25.71205803244033
7.440000000000017 25.789199250502307
7.4700000000000175 25.865960157536545
7.500000000000018 25.94235777877866
7.530000000000018 26.018407993617096
7.560000000000018 26.094125611945543
7.5900000000000185 26.169524625056717
7.620000000000019 26.244618552319018
7.650000000000019 26.31942079664687
7.680000000000019 26.393944931613127
7.7100000000000195 26.46820490826235
7.74000000000002 26.542215101056605
7.77000000000002 26.61599018348005
7.80000000000002 26.68954479792942
7.8300000000000205 26.76289303190822
7.860000000000021 26.836047738011484
7.890000000000021 26.90901974812437
7.920000000000021 26.98181703706434
7.9500000000000215 27.054443894116485
7.980000000000022 27.126900171887613
8.010000000000021 27.19918066677505
8.04000000000002 27.27127463994354
8.07000000000002 27.34316551327843
8.10000000000002 27.414830724777797
8.130000000000019 27.486241746459044
8.160000000000018 27.55736423578458
8.190000000000017 27.62815827141759
8.220000000000017 27.698578667354063
8.250000000000016 27.76857532147175
8.280000000000015 27.838093513407973
8.310000000000015 27.907074149146727
8.340000000000014 27.97545393758997
8.370000000000013 28.043165524009833
8.400000000000013 28.11013761268413
8.430000000000012 28.17629512360835
8.460000000000012 28.241559411321536
8.49000000000001 28.30584853309662
8.52000000000001 28.369077565156847
8.55000000000001 28.431158963561288
8.580000000000009 28.49200301353855
8.610000000000008 28.55151835405476
8.640000000000008 28.60961254932259
8.670000000000007 28.66619269613139
8.700000000000006 28.721166051900944
8.730000000000006 28.77444070281142
8.760000000000005 28.825926259666133
8.790000000000004 28.875534546955013
8.820000000000004 28.92318023882142
8.850000000000003 28.968781363078897
8.880000000000003 29.012259688092715
8.910000000000002 29.053540992183503
8.940000000000001 29.09255524073926
8.97 29.12923667143263
9.0 29.163523829996933
9.03 29.195359675158805
9.059999999999999 29.224691739183058
9.089999999999998 29.251472280215314
9.119999999999997 29.275658359723565
9.149999999999997 29.297211888297266
9.179999999999996 29.316099682297825
9.209999999999996 29.332293525558516
9.239999999999995 29.34577024738065
9.269999999999994 29.356511725197553
9.299999999999994 29.364504825829098
9.329999999999993 29.369741307640197
9.359999999999992 29.37221769763977
9.389999999999992 29.371935092290084
9.419999999999991 29.368898838441336
9.44999999999999 29.363118196651033
9.47999999999999 29.354606098156303
9.50999999999999 29.343379105091184
9.539999999999988 29.329457513616003
9.569999999999988 29.312865422869876
9.599999999999987 29.293630209171305
9.629999999999987 29.27178150916224
9.659999999999986 29.2473506279689
9.689999999999985 29.22037063328881
9.719999999999985 29.190877056054042
9.749999999999984 29.158908502954542
9.779999999999983 29.124506614411683
9.809999999999983 29.087715661841433
9.839999999999982 29.04858242067891
9.869999999999981 29.007156410707974
9.89999999999998 28.96349060119662
9.92999999999998 28.91764224700727
9.95999999999998 28.86967304217825
9.989999999999979 28.819648388221186
10.019999999999978 28.762508711700956
10.049999999999978 28.68917184003238
10.079999999999977 28.59017134388404
10.109999999999976 28.457958856892905
10.139999999999976 28.28872625011962
10.169999999999975 28.08359168014027
10.199999999999974 27.848842955616252
10.229999999999974 27.59511805587688
10.259999999999973 27.335684759464662
10.289999999999973 27.084210078660927
10.319999999999972 26.852507359616578
10.349999999999971 26.648713609009835
10.37999999999997 26.47621367770311
10.40999999999997 26.33344484512214
10.43999999999997 26.21453276329461
10.469999999999969 26.110561570977268
10.499999999999968 26.011194231612528
10.529999999999967 25.906336740184603
10.559999999999967 25.78757347458287
10.589999999999966 25.649180959340114
10.619999999999965 25.488625409034647
10.649999999999965 25.30654772219478
10.679999999999964 25.10631525336473
10.709999999999964 24.89326596383512
10.739999999999963 24.673787776654965
10.769999999999962 24.454369376318265
10.799999999999962 24.2407385952034
10.829999999999961 24.037176164810468
10.85999999999996 23.84606099942323
10.88999999999996 23.66767693281242
10.919999999999959 23.50028379033017
10.949999999999958 23.34043026982945
10.979999999999958 23.18346166800355
11.009999999999957 23.024154107618127
11.039999999999957 22.857391083046906
11.069999999999956 22.678793138121872
11.099999999999955 22.485218689697405
11.129999999999955 22.27507259770369
11.159999999999954 22.048386813443216
11.189999999999953 21.806672769891765
11.219999999999953 21.55257949290063
11.249999999999952 21.289418010644887
11.279999999999951 21.020629545876286
11.30999999999995 20.74927627879362
11.33999999999995 20.47762941781879
11.36999999999995 20.20691292188877
11.399999999999949 19.93720983040539
11.429999999999948 19.66753033123969
11.459999999999948 19.396022362172964
11.489999999999947 19.120286156969243
11.519999999999946 18.837739367157226
11.549999999999946 18.545980495322457
11.579999999999945 18.243100356357097
11.609999999999944 17.927902235537303
11.639999999999944 17.600008914507605
11.669999999999943 17.259854150745156
11.699999999999942 16.90857385660004
11.729999999999942 16.54782861303739
11.759999999999941 16.179573319477367
11.78999999999994 15.80579203703202
11.81999999999994 15.428263771648679
11.84999999999994 15.048383825072388
11.879999999999939 14.667050419576443
11.909999999999938 14.284622457014954
11.939999999999937 13.900952592260392
11.969999999999937 13.51548224995146
11.999999999999936 13.127377522511225
12.029999999999935 12.735683508487877
12.059999999999935 12.339478006883631
12.089999999999934 11.938009034865884
12.119999999999933 11.530801232023787
12.149999999999933 11.117719701147488
12.179999999999932 10.698986401519004
12.209999999999932 10.275149854978695
12.239999999999931 9.847014319032883
12.26999999999993 9.415541692424817
12.29999999999993 8.98173985993577
12.329999999999929 8.546553469750396
12.359999999999928 8.110773474273824
12.389999999999928 7.674982023265515
12.419999999999927 7.239510315223626
12.449999999999926 6.804395558209656
12.479999999999926 6.369424922557841
12.509999999999925 5.934205588836807
12.539999999999925 5.498240285817137
12.569999999999924 5.061007742370399
12.599999999999923 4.6220391664897384
12.629999999999923 4.18097951969355
12.659999999999922 3.737627463695189
12.689999999999921 3.291950703848221
12.71999999999992 2.8440767747284057
12.74999999999992 2.394264618072207
12.77999999999992 1.9428603340241635
12.809999999999919 1.4902435724476122
12.839999999999918 1.0367737022504853
12.869999999999918 0.5827418154437319
12.899999999999917 0.12833407005662234
12.929999999999916 -0.3263896063571249
12.959999999999916 -0.7814984505831446
12.989999999999915 -1.2371717829522273
13.019999999999914 -1.6936563154976088
13.049999999999914 -2.15121842230596
13.079999999999913 -2.6101268193868092
13.109999999999912 -3.070629724689862
13.139999999999912 -3.5329089875515627
13.169999999999911 -3.9970355499671437
13.19999999999991 -4.462939149104131
13.22999999999991 -4.930397240868488
13.25999999999991 -5.399043951868424
13.289999999999909 -5.868395775316937
13.319999999999908 -6.337886635803608
13.349999999999907 -6.806905026481488
13.379999999999907 -7.274828368716793
13.409999999999906 -7.741051132346658
13.439999999999905 -8.205004291652491
13.469999999999905 -8.666163611528363
13.499999999999904 -9.124037471496601
13.529999999999903 -9.578167195449229
13.559999999999903 -10.028155474745517
13.589999999999902 -10.473639125419329
13.619999999999902 -10.914258735576457
13.6499999999999 -11.349634821038068
13.6799999999999 -11.779352854956793
13.7099999999999 -12.202966883434188
13.739999999999899 -12.620015182143757
13.769999999999898 -13.030033141302328
13.799999999999898 -13.432563574818833
13.829999999999897 -13.827165041255856
13.859999999999896 -14.213421096959355
13.889999999999896 -14.590950885207713
13.919999999999895 -14.959418580258953
13.949999999999894 -15.318539590646477
13.979999999999894 -15.66808284779816
14.009999999999893 -16.007868996209975
14.039999999999893 -16.337764727576978
14.069999999999892 -16.657674405994968
14.099999999999891 -16.967530219858272
14.12999999999989 -17.267281824397365
14.15999999999989 -17.556886766043835
14.18999999999989 -17.83630267465085
14.219999999999889 -18.105482258141592
14.249999999999888 -18.36437171911099
14.279999999999887 -18.612912985416674
14.309999999999887 -18.851049101727373
14.339999999999886 -19.07873161908948
14.369999999999886 -19.295929027691535
14.399999999999885 -19.502634998124517
14.429999999999884 -19.698875300926098
14.459999999999884 -19.88471263317374
14.489999999999883 -20.060248630502674
14.519999999999882 -20.225622868254842
14.549999999999882 -20.38100939440173
14.579999999999881 -20.52661198269913
14.60999999999988 -20.662658289688114
14.63999999999988 -20.789393313437174
14.66999999999988 -20.907072953904063
14.699999999999878 -21.015958466859683
14.729999999999878 -21.116312340713353
14.759999999999877 -21.208395702882097
14.789999999999877 -21.292467599482006
14.819999999999876 -21.368785697055642
14.849999999999875 -21.43760828700942
14.879999999999875 -21.499197429468957
14.909999999999874 -21.55382162008547
14.939999999999873 -21.601756963743313
14.969999999999873 -21.643286890017947
14.999999999999872 -21.678700955635204
15.029999999999871 -21.70829267223583
15.05999999999987 -21.7323565322617
15.08999999999987 -21.75118484962335
15.11999999999987 -21.76506403488093
15.149999999999869 -21.77426970682377
15.179999999999868 -21.779061560237626
15.209999999999868 -21.779680218982133
15.239999999999867 -21.77634434600534
15.269999999999866 -21.76924895042972
15.299999999999866 -21.758565942921802
15.329999999999865 -21.744444125280566
15.359999999999864 -21.727008264930944
15.389999999999864 -21.70635788465993
15.419999999999863 -21.682566954569797
15.449999999999863 -21.655685376673457
15.479999999999862 -21.625742254518695
15.509999999999861 -21.592750464156413
15.53999999999986 -21.556711925953493
15.56999999999986 -21.51762285660016
15.59999999999986 -21.475477939083152
15.629999999999859 -21.43027337766312
15.659999999999858 -21.38200858305249
15.689999999999857 -21.330686532748697
15.719999999999857 -21.276313353197423
15.749999999999856 -21.21889767708985
15.779999999999855 -21.158449866472306
15.809999999999855 -21.09498111767848
15.839999999999854 -21.02850233507069
15.869999999999854 -20.959023232106503
15.899999999999853 -20.88655252197854
15.929999999999852 -20.8110982540188
15.959999999999852 -20.73266788942932
15.989999999999851 -20.651268063738073
16.01999999999985 -20.566903848657876
16.04999999999985 -20.479577876819732
16.079999999999853 -20.389290543563714
16.109999999999854 -20.296040881205666
16.139999999999855 -20.199827871644477
16.169999999999856 -20.100652827972354
16.199999999999857 -19.99852251413094
