# Results for "element" with Id # 2460395 for search config "initial" at position: x0: 125; y0: 0; z0: 232.75862069
# time VELOCITY_X
0.03 0.007093929002796035
0.06 0.029715479115279105
0.09 0.07523011176043001
0.12 0.14878602567633234
0.15 0.2527764896955496
0.18 0.3867077447336251
0.21 0.5473868052932521
0.24 0.7293625680411506
0.27 0.9255477425369326
0.30000000000000004 1.1279440005999144
0.33000000000000007 1.328395381014579
0.3600000000000001 1.5193043132126984
0.3900000000000001 1.6942572363252155
0.42000000000000015 1.8485198362139863
0.4500000000000002 1.9793733027743243
0.4800000000000002 2.086273178558835
0.5100000000000002 2.170822661228897
0.5400000000000003 2.2365641332519064
0.5700000000000003 2.2886068548231675
0.6000000000000003 2.333123699152579
0.6300000000000003 2.376763806973486
0.6600000000000004 2.4260370503736324
0.6900000000000004 2.486729292102229
0.7200000000000004 2.5634021980531436
0.7500000000000004 2.6590201771318926
0.7800000000000005 2.7747318684647553
0.8100000000000005 2.909817700804777
0.8400000000000005 3.0618008712616294
0.8700000000000006 3.2267075380302273
0.9000000000000006 3.39945313309836
0.9300000000000006 3.574323626975421
0.9600000000000006 3.7455135323254924
0.9900000000000007 3.9076750922834558
1.0200000000000007 4.056428505434208
1.0500000000000007 4.188782075761378
1.0800000000000007 4.303416393314356
1.1100000000000008 4.400798854528473
1.1400000000000008 4.483113089611669
1.1700000000000008 4.554009691403469
1.2000000000000008 4.61820597838502
1.2300000000000009 4.680980415567371
1.260000000000001 4.747618071042348
1.290000000000001 4.822867477283723
1.320000000000001 4.910465205548725
1.350000000000001 5.0127753102529
1.380000000000001 5.130577664898411
1.410000000000001 5.263023867188229
1.440000000000001 5.407763029250279
1.470000000000001 5.5612231556189
1.500000000000001 5.719018195390103
1.5300000000000011 5.876436913853587
1.5600000000000012 6.028959994555899
1.5900000000000012 6.172746934769941
1.6200000000000012 6.305037111521196
1.6500000000000012 6.42441921871879
1.6800000000000013 6.530939750184488
1.7100000000000013 6.6260417987689735
1.7400000000000013 6.712347017545123
1.7700000000000014 6.79331276748827
1.8000000000000014 6.872810239340756
1.8300000000000014 6.9546764880796745
1.8600000000000014 7.042293011210125
1.8900000000000015 7.13823721069534
1.9200000000000015 7.244041734009577
1.9500000000000015 7.360082518592358
1.9800000000000015 7.485600973981265
2.0100000000000016 7.618850747961084
2.0400000000000014 7.757346246370865
2.070000000000001 7.8981797111202825
2.100000000000001 8.038367399308015
2.130000000000001 8.175183694389832
2.1600000000000006 8.306445429578103
2.1900000000000004 8.430716536817515
2.22 8.54741453081245
2.25 8.656813494774134
2.28 8.759951097246137
2.3099999999999996 8.85845812418013
2.3399999999999994 8.954336510525161
2.369999999999999 9.049715403855727
2.399999999999999 9.146614265607496
2.429999999999999 9.246738231502611
2.4599999999999986 9.351324638759358
2.4899999999999984 9.461052125397645
2.5199999999999982 9.576015820073428
2.549999999999998 9.695764866320587
2.579999999999998 9.819392539818699
2.6099999999999977 9.945664845780408
2.6399999999999975 10.073171067182262
2.6699999999999973 10.200479210940484
2.699999999999997 10.326280517256638
2.729999999999997 10.449509869255946
2.7599999999999967 10.569432613790084
2.7899999999999965 10.685692396905289
2.8199999999999963 10.798318855021856
2.849999999999996 10.907697811435794
2.879999999999996 11.014509754153996
2.9099999999999957 11.119644689534676
2.9399999999999955 11.224102834592317
2.9699999999999953 11.328891099324236
2.999999999999995 11.434924984824844
3.029999999999995 11.54294446986304
3.0599999999999947 11.653450779379893
3.0899999999999945 11.766668915039537
3.1199999999999943 11.882538348948845
3.149999999999994 12.000731753361485
3.179999999999994 12.120699123062721
3.2099999999999937 12.241732339285917
3.2399999999999936 12.363043366889624
3.2699999999999934 12.483848020204764
3.299999999999993 12.603446731926542
3.329999999999993 12.721294118734052
3.3599999999999928 12.837050376857157
3.3899999999999926 12.95060943842206
3.4199999999999924 13.062101409130163
3.449999999999992 13.171869603984833
3.479999999999992 13.280425287430944
3.509999999999992 13.388385638004952
3.5399999999999916 13.496402238265603
3.5699999999999914 13.605088297288054
3.599999999999991 13.714952750921427
3.629999999999991 13.826348403677333
3.659999999999991 13.939439482745918
3.6899999999999906 14.05419161168836
3.7199999999999904 14.170384529834038
3.7499999999999902 14.287645271283846
3.77999999999999 14.405497219801934
3.80999999999999 14.523418774959845
3.8399999999999896 14.640904459155132
3.8699999999999894 14.757521283212778
3.8999999999999893 14.872954043734378
3.929999999999989 14.987034800867475
3.959999999999989 15.09975387048035
3.9899999999999887 15.211251988209982
4.019999999999989 15.321795567994936
4.049999999999989 15.431738874036558
4.079999999999989 15.541478268757647
4.10999999999999 15.651404337689906
4.13999999999999 15.761857596586863
4.16999999999999 15.873092712128795
4.19999999999999 15.985254854650492
4.229999999999991 16.098370147686364
4.259999999999991 16.212350402692163
4.289999999999991 16.327010648960027
4.319999999999991 16.442096570624916
4.349999999999992 16.55731801307018
4.379999999999992 16.672384274495155
4.409999999999992 16.787036994514814
4.439999999999992 16.9010770306886
4.469999999999993 17.014382671777124
4.499999999999993 17.126917733681797
4.529999999999993 17.238729364840307
4.559999999999993 17.34993657547748
4.589999999999994 17.460711500992854
4.619999999999994 17.57125607652146
4.649999999999994 17.681777105076684
4.679999999999994 17.792462651446268
4.709999999999995 17.903462305139083
4.739999999999995 18.014873219461407
4.769999999999995 18.126733035282818
4.799999999999995 18.239019945539958
4.829999999999996 18.351659345100526
4.859999999999996 18.464535829901838
4.889999999999996 18.57750881081217
4.919999999999996 18.690429754478863
4.949999999999997 18.80315903377536
4.979999999999997 18.91558056549004
5.009999999999997 19.02761278937429
5.039999999999997 19.13921505879606
5.069999999999998 19.250389072684403
5.099999999999998 19.36117555324762
5.129999999999998 19.471646860238682
5.159999999999998 19.58189663914865
5.189999999999999 19.692027841110082
5.219999999999999 19.802140534951132
5.249999999999999 19.91232086611131
5.279999999999999 20.02263229224742
5.31 20.133109907374365
5.34 20.243758282972315
5.37 20.354552834924235
5.4 20.46544434657431
5.430000000000001 20.57636595118035
5.460000000000001 20.68724164211175
5.490000000000001 20.797995269154388
5.520000000000001 20.90855899303357
5.550000000000002 21.01888028613271
5.580000000000002 21.12892677447276
5.610000000000002 21.238688509501316
5.640000000000002 21.348177571283088
5.670000000000003 21.457425215514206
5.700000000000003 21.566477038828786
5.730000000000003 21.675386844429937
5.760000000000003 21.784209983430895
5.790000000000004 21.892996979621806
5.820000000000004 22.00178814884363
5.850000000000004 22.11060977304826
5.880000000000004 22.219472174520618
5.910000000000005 22.32836978977607
5.940000000000005 22.43728310144122
5.970000000000005 22.5461820903037
6.000000000000005 22.655030702383733
6.030000000000006 22.763791740648223
6.060000000000006 22.87243157483843
6.090000000000006 22.980924129105443
6.120000000000006 23.089253725574572
6.150000000000007 23.1974165238886
6.180000000000007 23.305420475620668
6.210000000000007 23.413283886980736
6.240000000000007 23.521032841928303
6.270000000000008 23.62869785731422
6.300000000000008 23.736310187447216
6.330000000000008 23.84389821502754
6.360000000000008 23.951484324678006
6.390000000000009 24.05908256761119
6.420000000000009 24.166697313118704
6.450000000000009 24.27432294125168
6.480000000000009 24.381944519793233
6.51000000000001 24.489539288707057
6.54000000000001 24.597078702861964
6.57000000000001 24.704530726049434
6.60000000000001 24.811862073018496
6.6300000000000106 24.919040125757693
6.660000000000011 25.02603430271752
6.690000000000011 25.13281676064289
6.720000000000011 25.239362375963918
6.7500000000000115 25.345648058142114
6.780000000000012 25.451651526415
6.810000000000012 25.557349730731936
6.840000000000012 25.662717140736305
6.8700000000000125 25.767724127628895
6.900000000000013 25.872335632331556
6.930000000000013 25.97651028206226
6.960000000000013 26.08020004322301
6.9900000000000135 26.183350441731534
7.020000000000014 26.28590133815473
7.050000000000014 26.387788155925023
7.080000000000014 26.48894343122006
7.1100000000000145 26.58929852561756
7.140000000000015 26.688785326431994
7.170000000000015 26.787337788205527
7.200000000000015 26.88489319517962
7.2300000000000155 26.98139304510819
7.260000000000016 27.076783527178804
7.290000000000016 27.17101559437505
7.320000000000016 27.264044667096684
7.3500000000000165 27.3558300462165
7.380000000000017 27.44633414111551
7.410000000000017 27.535521621384767
7.440000000000017 27.62335860534354
7.4700000000000175 27.70981194712985
7.500000000000018 27.79484868711252
7.530000000000018 27.87843570323413
7.560000000000018 27.960539560827158
7.5900000000000185 28.041126529721687
7.620000000000019 28.120162715055883
7.650000000000019 28.197614224837977
7.680000000000019 28.27344732460996
7.7100000000000195 28.347628535039053
7.74000000000002 28.420124624114713
7.77000000000002 28.490902487114543
7.80000000000002 28.55992892045967
7.8300000000000205 28.627170329508896
7.860000000000021 28.692592416271737
7.890000000000021 28.75615989992324
7.920000000000021 28.817836331611232
7.9500000000000215 28.87758408436135
7.980000000000022 28.935364558646107
8.010000000000021 28.991138628070097
8.04000000000002 29.044867338373987
8.07000000000002 29.096512849143288
8.10000000000002 29.14603958002313
8.130000000000019 29.19341551894689
8.160000000000018 29.238613640353798
8.190000000000017 29.28161336312982
8.220000000000017 29.322401984286497
8.250000000000016 29.360976028941536
8.280000000000015 29.397342443895543
8.310000000000015 29.431519603864977
8.340000000000014 29.463538100601895
8.370000000000013 29.4934412952964
8.400000000000013 29.521285627452915
8.430000000000012 29.547140690842053
8.460000000000012 29.571089094340856
8.49000000000001 29.593226112083098
8.52000000000001 29.613659138252153
8.55000000000001 29.632506975771193
8.580000000000009 29.64989897955035
8.610000000000008 29.665974055720614
8.640000000000008 29.68087950728886
8.670000000000007 29.694769838688092
8.700000000000006 29.70780543983114
8.730000000000006 29.720151122642424
8.760000000000005 29.731974506411444
8.790000000000004 29.743444219527014
8.820000000000004 29.754728012061506
8.850000000000003 29.765990824865188
8.880000000000003 29.777392865485034
8.910000000000002 29.78908774360306
8.940000000000001 29.8012207137895
8.97 29.813927051978794
9.0 29.82733057926654
9.03 29.841542323367424
9.059999999999999 29.856659397219374
9.089999999999998 29.87276420887081
9.119999999999997 29.889924014489686
9.149999999999997 29.908190774190185
9.179999999999996 29.92760129375609
9.209999999999996 29.948177693218263
9.239999999999995 29.9699281582081
9.269999999999994 29.992847896581456
9.299999999999994 30.01692033099097
9.329999999999993 30.042118481859532
9.359999999999992 30.0684064386059
9.389999999999992 30.095740972021083
9.419999999999991 30.12407320651898
9.44999999999999 30.153350296552826
9.47999999999999 30.183517092874766
9.50999999999999 30.214517852168726
9.539999999999988 30.2462980894759
9.569999999999988 30.27880644327051
9.599999999999987 30.31199639716796
9.629999999999987 30.345827715591557
9.659999999999986 30.38026764469485
9.689999999999985 30.41529203271374
9.719999999999985 30.450886202902442
9.749999999999984 30.487045715947193
9.779999999999983 30.52377705506323
9.809999999999983 30.561098541655003
9.839999999999982 30.59904115962055
9.869999999999981 30.637649250130472
9.89999999999998 30.67698104192903
9.92999999999998 30.717109419064464
9.95999999999998 30.7581224042721
9.989999999999979 30.800123190518363
10.019999999999978 30.837754621978984
10.049999999999978 30.86147479696573
10.079999999999977 30.861470285141465
10.109999999999976 30.82999899023527
10.139999999999976 30.763184725213566
10.169999999999975 30.662191642658875
10.199999999999974 30.53348093093195
10.229999999999974 30.388002666457844
10.259999999999973 30.23945570712939
10.289999999999973 30.101995949154496
10.319999999999972 29.98789689891022
10.349999999999971 29.905645584368386
10.37999999999997 29.858819564769604
10.40999999999997 29.845894697595476
10.43999999999997 29.86093180450124
10.469999999999969 29.894928696026515
10.499999999999968 29.93752499353368
10.529999999999967 29.978725383728474
10.559999999999967 30.010352835916194
10.589999999999966 30.02703725263099
10.619999999999965 30.026658303155806
10.649999999999965 30.010267064092382
10.679999999999964 29.981588001652
10.709999999999964 29.946242270410696
10.739999999999963 29.910838557636918
10.769999999999962 29.882059879973365
10.799999999999962 29.86584649114221
10.829999999999961 29.866746229132303
10.85999999999996 29.8874785013366
10.88999999999996 29.928737751541902
10.919999999999959 29.989242117607258
10.949999999999958 30.06601235817782
10.979999999999958 30.15484328870046
11.009999999999957 30.250907158371707
11.039999999999957 30.349409922296815
11.069999999999956 30.44621183955781
11.099999999999955 30.538327369118296
11.129999999999955 30.624237023819283
11.159999999999954 30.703972932223596
11.189999999999953 30.778976221382987
11.219999999999953 30.851759783700093
11.249999999999952 30.92543874771186
11.279999999999951 31.003207384011414
11.30999999999995 31.0878434242194
11.33999999999995 31.1813099257524
11.36999999999995 31.284503797289446
11.399999999999949 31.397173901313067
11.429999999999948 31.518004948496248
11.459999999999948 31.644839695134362
11.489999999999947 31.77499535831363
11.519999999999946 31.905621495508576
11.549999999999946 32.03404665133909
11.579999999999945 32.15806845092642
11.609999999999944 32.27615453494812
11.639999999999944 32.38753777850502
11.669999999999943 32.492204925177504
11.699999999999942 32.59079178742684
11.729999999999942 32.68440864248013
11.759999999999941 32.77442533385475
11.78999999999994 32.862247300346795
11.81999999999994 32.94911147408203
11.84999999999994 33.035925357373955
11.879999999999939 33.12316493383432
11.909999999999938 33.210838464896554
11.939999999999937 33.29851465059062
11.969999999999937 33.38540624768828
11.999999999999936 33.47049438051544
12.029999999999935 33.552674813727876
12.059999999999935 33.63090621617884
12.089999999999934 33.7043414881648
12.119999999999933 33.77242656727885
12.149999999999933 33.83495630271689
12.179999999999932 33.89208314459205
12.209999999999932 33.944280732737425
12.239999999999931 33.992270436890195
12.26999999999993 34.03692298461243
12.29999999999993 34.079149747757114
12.329999999999929 34.11979847990203
12.359999999999928 34.15956635984097
12.389999999999928 34.198940086410396
12.419999999999927 34.23816844102809
12.449999999999926 34.277267863034666
12.479999999999926 34.316057632757406
12.509999999999925 34.35421745843679
12.539999999999925 34.39135801507279
12.569999999999924 34.42709426981229
12.599999999999923 34.461111905901916
12.629999999999923 34.49321876157944
12.659999999999922 34.52337576660995
12.689999999999921 34.55170508436779
12.71999999999992 34.57847621580826
12.74999999999992 34.604073598410395
12.77999999999992 34.62895119452961
12.809999999999919 34.653581076291374
12.839999999999918 34.67840301871432
12.869999999999918 34.703781557556795
12.899999999999917 34.7299753320931
12.929999999999916 34.757121436787045
12.959999999999916 34.785235323498796
12.989999999999915 34.814224902905245
13.019999999999914 34.84391580555159
13.049999999999914 34.874083642311334
13.079999999999913 34.90448859948355
13.109999999999912 34.9349078427571
13.139999999999912 34.96516205428012
13.169999999999911 34.99513344003855
13.19999999999991 35.02477374434043
13.22999999999991 35.05410221844832
13.25999999999991 35.083194448241436
13.289999999999909 35.112164279389326
13.319999999999908 35.14114177937137
13.349999999999907 35.17025027299741
13.379999999999907 35.19958562637444
13.409999999999906 35.22920048263958
13.439999999999905 35.25909509877961
13.469999999999905 35.289215584417605
13.499999999999904 35.319459305181105
13.529999999999903 35.34968629481861
13.559999999999903 35.37973484915754
13.589999999999902 35.40943917613829
13.619999999999902 35.43864666059161
13.6499999999999 35.46723290931458
13.6799999999999 35.495112684157064
13.7099999999999 35.52224555195026
13.739999999999899 35.548636045260665
13.769999999999898 35.57432871959013
13.799999999999898 35.5993991551935
13.829999999999897 35.6239422612969
13.859999999999896 35.64805912167984
13.889999999999896 35.67184433539694
13.919999999999895 35.6953754222708
13.949999999999894 35.718705227804215
13.979999999999894 35.74185806261968
14.009999999999893 35.76482977902177
14.039999999999893 35.78759133326836
14.069999999999892 35.81009495900443
14.099999999999891 35.83228189831688
14.12999999999989 35.854090558878326
14.15999999999989 35.875463983947824
14.18999999999989 35.89635623862343
14.219999999999889 35.91673691369141
14.249999999999888 35.936592926210096
14.279999999999887 35.95592769387048
14.309999999999887 35.974758207905225
14.339999999999886 35.993110529489336
14.369999999999886 36.01101449232398
14.399999999999885 36.028498322861836
14.429999999999884 36.04558399818437
14.459999999999884 36.06228382636897
14.489999999999883 36.0785986557482
14.519999999999882 36.09451783126018
14.549999999999882 36.1100207244312
14.579999999999881 36.12507935949224
14.60999999999988 36.13966166389641
14.63999999999988 36.15373497512368
14.66999999999988 36.16726946111509
14.699999999999878 36.18024110258622
14.729999999999878 36.1926339064144
14.759999999999877 36.20444111167512
14.789999999999877 36.21566535378104
14.819999999999876 36.22631764157417
14.849999999999875 36.23641533831957
14.879999999999875 36.24597960351162
14.909999999999874 36.25503293698843
14.939999999999873 36.26359710170034
14.969999999999873 36.27169155808004
14.999999999999872 36.27933282734235
15.029999999999871 36.28653484880609
15.05999999999987 36.29331003941131
15.08999999999987 36.2996710429509
15.11999999999987 36.305632447086104
15.149999999999869 36.31121201812542
15.179999999999868 36.31643110995348
15.209999999999868 36.321314295276565
15.239999999999867 36.32588873055471
15.269999999999866 36.33018381139583
15.299999999999866 36.33423108135719
15.329999999999865 36.33806415585911
15.359999999999864 36.341718318202375
15.389999999999864 36.34522936347021
15.419999999999863 36.34863188208389
15.449999999999863 36.35195717539578
15.479999999999862 36.355231147316985
15.509999999999861 36.35847254260833
15.53999999999986 36.36169191895041
15.56999999999986 36.364891252806814
15.59999999999986 36.36806456272745
15.629999999999859 36.371199561858795
15.659999999999858 36.37427958201433
15.689999999999857 36.3772856109115
15.719999999999857 36.38019806436772
15.749999999999856 36.38299835828185
15.779999999999855 36.385669784610286
15.809999999999855 36.38819760502377
15.839999999999854 36.39056899271412
15.869999999999854 36.39277343254368
15.899999999999853 36.39480358860158
15.929999999999852 36.39665574323112
15.959999999999852 36.3983297476473
15.989999999999851 36.39982859113169
16.01999999999985 36.40115745820116
16.04999999999985 36.402322309242486
16.079999999999853 36.4033283842286
16.109999999999854 36.404178977842605
16.139999999999855 36.40487474756611
16.169999999999856 36.40541390976493
16.199999999999857 36.405793142031854
16.22999999999986 36.40600904177413
16.25999999999986 36.40605958263073
16.28999999999986 36.405945379757505
16.31999999999986 36.405670489323796
16.349999999999863 36.40524282205788
