# Results for "element" with Id # 2475615 for search config "initial" at position: x0: 125; y0: 0; z0: 336.206896552
# time VELOCITY_X
0.03 0.007341395659488639
0.06 0.030767305650834686
0.09 0.07794464951147292
0.12 0.15428545168711286
0.15 0.262379413573572
0.18 0.40181899339856697
0.21 0.5693372452232753
0.24 0.7592103155917201
0.27 0.963874068128313
0.30000000000000004 1.1746925320391395
0.33000000000000007 1.3828042248297108
0.3600000000000001 1.579965249257648
0.3900000000000001 1.7593080813208022
0.42000000000000015 1.9159435580882638
0.4500000000000002 2.047350294094038
0.4800000000000002 2.153519016114764
0.5100000000000002 2.2368460887559944
0.5400000000000003 2.3017971961427177
0.5700000000000003 2.3543852897993522
0.6000000000000003 2.401523598217465
0.6300000000000003 2.450323501791275
0.6600000000000004 2.507407844467788
0.6900000000000004 2.578304117638316
0.7200000000000004 2.6669701010450857
0.7500000000000004 2.7754892285703807
0.7800000000000005 2.9039556846467343
0.8100000000000005 3.0505515344805993
0.8400000000000005 3.2118012032649714
0.8700000000000006 3.382973303357997
0.9000000000000006 3.5585873105861867
0.9300000000000006 3.7329736534566416
0.9600000000000006 3.9008316866756836
0.9900000000000007 4.057731042569148
1.0200000000000007 4.200508575790429
1.0500000000000007 4.32752472007512
1.0800000000000007 4.438758479814361
1.1100000000000008 4.5357376884685
1.1400000000000008 4.621318438237397
1.1700000000000008 4.699342684318533
1.2000000000000008 4.774214126488636
1.2300000000000009 4.8504387443015755
1.260000000000001 4.93217720332669
1.290000000000001 5.022852528752632
1.320000000000001 5.1248484352986186
1.350000000000001 5.239323057664512
1.380000000000001 5.3661506108672254
1.410000000000001 5.503990920276749
1.440000000000001 5.650474825209534
1.470000000000001 5.802483017193057
1.500000000000001 5.956487785175885
1.5300000000000011 6.108921874800225
1.5600000000000012 6.256536978150926
1.5900000000000012 6.396716177522711
1.6200000000000012 6.527710306576953
1.6500000000000012 6.648776776154278
1.6800000000000013 6.760210248910254
1.7100000000000013 6.863266260842035
1.7400000000000013 6.95999013031
1.7700000000000014 7.052972947932586
1.8000000000000014 7.1450630199282354
1.8300000000000014 7.239064393123828
1.8600000000000014 7.337453769898991
1.8900000000000015 7.442143684278752
1.9200000000000015 7.554313750229133
1.9500000000000015 7.6743239672131365
1.9800000000000015 7.80171528860017
2.0100000000000016 7.935293783278842
2.0400000000000014 8.07328650652201
2.070000000000001 8.213550362591533
2.100000000000001 8.353810456437818
2.130000000000001 8.4919020730548
2.1600000000000006 8.625990846224713
2.1900000000000004 8.754748774753843
2.22 8.877469214296497
2.25 8.994111182820514
2.28 9.105271334519198
2.3099999999999996 9.212089897041558
2.3399999999999994 9.316103722497163
2.369999999999999 9.419064692675128
2.399999999999999 9.522744503811104
2.429999999999999 9.628747235752376
2.4599999999999986 9.738349148074393
2.4899999999999984 9.852381248863098
2.5199999999999982 9.971164869239134
2.549999999999998 10.094504369643609
2.579999999999998 10.221734900903595
2.6099999999999977 10.351817419805187
2.6399999999999975 10.483468531482414
2.6699999999999973 10.61530960065365
2.699999999999997 10.746018232315757
2.729999999999997 10.874465773356114
2.7599999999999967 10.999826782373743
2.7899999999999965 11.12165015493375
2.8199999999999963 11.239886298852978
2.849999999999996 11.354869844917735
2.879999999999996 11.467262234486704
2.9099999999999957 11.577962645322799
2.9399999999999955 11.687998640757721
2.9699999999999953 11.798409435346608
2.999999999999995 11.910134686333452
3.029999999999995 12.023920344226829
3.0599999999999947 12.140250577062996
3.0899999999999945 12.2593114879383
3.1199999999999943 12.380988623463432
3.149999999999994 12.504896582948149
3.179999999999994 12.63043574425745
3.2099999999999937 12.75686852650811
3.2399999999999936 12.88340596964313
3.2699999999999934 13.009294827595962
3.299999999999993 13.133895860112988
3.329999999999993 13.25674546492764
3.3599999999999928 13.377595017296793
3.3899999999999926 13.496424967910624
3.4199999999999924 13.613433634182279
3.449999999999992 13.729003329034413
3.479999999999992 13.843648745658069
3.509999999999992 13.957954132709046
3.5399999999999916 14.072506623487543
3.5699999999999914 14.187833070706228
3.599999999999991 14.30434694493955
3.629999999999991 14.422310418230646
3.659999999999991 14.541814843549611
3.6899999999999906 14.662780711846562
3.7199999999999904 14.784976017806502
3.7499999999999902 14.908050056542468
3.77999999999999 15.031578171398156
3.80999999999999 15.155112027499882
3.8399999999999896 15.27822966321556
3.8699999999999894 15.40057989175942
3.8999999999999893 15.521916519761348
3.929999999999989 15.642119191336027
3.959999999999989 15.761199299991375
3.9899999999999887 15.879291126728951
4.019999999999989 15.996629988459677
4.049999999999989 16.113520516868025
4.079999999999989 16.230299111399663
4.10999999999999 16.347295037715753
4.13999999999999 16.46479454984061
4.16999999999999 16.58301183912768
4.19999999999999 16.702069647024285
4.229999999999991 16.821991143542682
4.259999999999991 16.94270333715786
4.289999999999991 17.064050974755457
4.319999999999991 17.185818777408365
4.349999999999992 17.307759046046726
4.379999999999992 17.429621233548797
4.409999999999992 17.551180052685567
4.439999999999992 17.672259050958317
4.469999999999993 17.792747273173998
4.499999999999993 17.912607552383054
4.529999999999993 18.031876008803092
4.559999999999993 18.15065335048355
4.589999999999994 18.269089468936926
4.619999999999994 18.38736348824282
4.649999999999994 18.505661805548634
4.679999999999994 18.62415672854237
4.709999999999995 18.74298808088243
4.739999999999995 18.8622496587189
4.769999999999995 18.981981750374885
4.799999999999995 19.102170165154792
4.829999999999996 19.22275145527499
4.859999999999996 19.34362333258332
4.889999999999996 19.464658761878173
4.919999999999996 19.585721896736615
4.949999999999997 19.706683939640147
4.979999999999997 19.827437143503833
5.009999999999997 19.94790549995461
5.039999999999997 20.068051133742703
5.069999999999998 20.187875971630916
5.099999999999998 20.307418820981116
5.129999999999998 20.426748495846056
5.159999999999998 20.545954035456493
5.189999999999999 20.66513331390991
5.219999999999999 20.784381432696062
5.249999999999999 20.90378021690849
5.279999999999999 21.023389922239815
5.31 21.14324393558883
5.34 21.26334686233432
5.37 21.3836759848216
5.4 21.504185702462856
5.430000000000001 21.62481424947688
5.460000000000001 21.745491781827184
5.490000000000001 21.86614882819347
5.520000000000001 21.98672412702201
5.550000000000002 22.10717100632752
5.580000000000002 22.227461681896404
5.610000000000002 22.347589126621955
5.640000000000002 22.467566460745495
5.670000000000003 22.58742409769897
5.700000000000003 22.707205119186373
5.730000000000003 22.826959523845318
5.760000000000003 22.94673807569992
5.790000000000004 23.06658648032107
5.820000000000004 23.186540530418654
5.850000000000004 23.306622710813258
5.880000000000004 23.426840553160098
5.910000000000005 23.547186812796458
5.940000000000005 23.66764132422927
5.970000000000005 23.788174213235717
6.000000000000005 23.9087500044829
6.030000000000006 24.02933209393952
6.060000000000006 24.14988704709069
6.090000000000006 24.270388239458715
6.120000000000006 24.39081846350832
6.150000000000007 24.511171271535286
6.180000000000007 24.63145098504627
6.210000000000007 24.751671459820493
6.240000000000007 24.87185383417888
6.270000000000008 24.992023590953373
6.300000000000008 25.112207320639598
6.330000000000008 25.232429581352946
6.360000000000008 25.352710213907773
6.390000000000009 25.473062391916546
6.420000000000009 25.59349158275112
6.450000000000009 25.713995476410908
6.480000000000009 25.834564822595382
6.51000000000001 25.95518501288698
6.54000000000001 26.07583817784256
6.57000000000001 26.196505513873262
6.60000000000001 26.31716955204403
6.6300000000000106 26.437816111169273
6.660000000000011 26.55843572811215
6.690000000000011 26.679024437438702
6.720000000000011 26.79958385303728
6.7500000000000115 26.9201205933887
6.780000000000012 27.040645163209973
6.810000000000012 27.161170461463634
6.840000000000012 27.28171011518778
6.8700000000000125 27.402276847347018
6.900000000000013 27.522881066753563
6.930000000000013 27.643529826477664
6.960000000000013 27.764226247988198
6.9900000000000135 27.88496944550908
7.020000000000014 28.00575492490714
7.050000000000014 28.126575376155486
7.080000000000014 28.247421736876436
7.1100000000000145 28.368284384494203
7.140000000000015 28.489154305934274
7.170000000000015 28.610024109284037
7.200000000000015 28.73088877164043
7.2300000000000155 28.851746052662346
7.260000000000016 28.97259655014029
7.290000000000016 29.093443415892075
7.320000000000016 29.214291789038253
7.3500000000000165 29.33514803373482
7.380000000000017 29.45601888529248
7.410000000000017 29.576910610738068
7.440000000000017 29.697828284316603
7.4700000000000175 29.81877525284707
7.500000000000018 29.939752841412073
7.530000000000018 30.06076031687219
7.560000000000018 30.181795095393465
7.5900000000000185 30.302853153536688
7.620000000000019 30.42392958111158
7.650000000000019 30.545019198722752
7.680000000000019 30.666117162761754
7.7100000000000195 30.787219486834694
7.74000000000002 30.908323421352165
7.77000000000002 31.029427658216402
7.80000000000002 31.15053234526432
7.8300000000000205 31.271638923835997
7.860000000000021 31.392749821760493
7.890000000000021 31.513868049011545
7.920000000000021 31.634996750049886
7.9500000000000215 31.756138772450637
7.980000000000022 31.877296297710778
8.010000000000021 31.998470575351668
8.04000000000002 32.11966178528996
8.07000000000002 32.240869036037175
8.10000000000002 32.36209048738115
8.130000000000019 32.48332357392597
8.160000000000018 32.60456529719459
8.190000000000017 32.725812546072085
8.220000000000017 32.84706240340174
8.250000000000016 32.96831240405557
8.280000000000015 33.08956071376415
8.310000000000015 33.210806217602794
8.340000000000014 33.33204851333698
8.370000000000013 33.453287816903035
8.400000000000013 33.574524796333165
8.430000000000012 33.695760358223886
8.460000000000012 33.81699541914029
8.49000000000001 33.938230687639034
8.52000000000001 34.05946649132211
8.55000000000001 34.180702656134024
8.580000000000009 34.30193845321153
8.610000000000008 34.42317262083676
8.640000000000008 34.54440345863722
8.670000000000007 34.665628964372786
8.700000000000006 34.786847001867386
8.730000000000006 34.908055477202154
8.760000000000005 35.02925250385295
8.790000000000004 35.15043653663096
8.820000000000004 35.27160646043931
8.850000000000003 35.39276162476237
8.880000000000003 35.5139018243204
8.910000000000002 35.635027232936004
8.940000000000001 35.756138301691344
8.97 35.877235636133435
9.0 35.99831987328671
9.03 36.11939157168281
9.059999999999999 36.24045113135861
9.089999999999998 36.36149874975044
9.119999999999997 36.482534414473555
9.149999999999997 36.60355792737114
9.179999999999996 36.724568959929734
9.209999999999996 36.84556712737609
9.239999999999995 36.96655207686115
9.269999999999994 37.08752357000612
9.299999999999994 37.208481556291375
9.329999999999993 37.32942622735368
9.359999999999992 37.45035805340196
9.389999999999992 37.57127779049013
9.419999999999991 37.692186464819066
9.44999999999999 37.81308533976571
9.47999999999999 37.93397586441879
9.50999999999999 38.0548596090557
9.539999999999988 38.17573818333664
9.569999999999988 38.29661315539562
9.599999999999987 38.41748599709156
9.629999999999987 38.53835806405634
9.659999999999986 38.65923060407205
9.689999999999985 38.780104793203144
9.719999999999985 38.90098176788531
9.749999999999984 39.021862669861584
9.779999999999983 39.142748686805966
9.809999999999983 39.26364107939786
9.839999999999982 39.38454122708669
9.869999999999981 39.5054506459295
9.89999999999998 39.62637091870386
9.92999999999998 39.747303530772875
9.95999999999998 39.868249827168334
9.989999999999979 39.98921101599808
10.019999999999978 40.1029529465851
10.049999999999978 40.19768681192886
10.079999999999977 40.26301401115205
10.109999999999976 40.29259152576005
10.139999999999976 40.285174903669684
10.169999999999975 40.24459406818543
10.199999999999974 40.17892790899788
10.229999999999974 40.09911648679509
10.259999999999973 40.0172680398241
10.289999999999973 39.94492383787928
10.319999999999972 39.89152241709343
10.349999999999971 39.86325725864202
10.37999999999997 39.86245500103685
10.40999999999997 39.887523462737896
10.43999999999997 39.933439982191985
10.469999999999969 39.99267953099094
10.499999999999968 40.05642717655901
10.529999999999967 40.11588775002831
10.559999999999967 40.16350177231656
10.589999999999966 40.1939012814692
10.619999999999965 40.20448754343118
10.649999999999965 40.19557652825729
10.679999999999964 40.17012569820906
10.709999999999964 40.13311577316872
10.739999999999963 40.09070442353435
10.769999999999962 40.049290333496316
10.799999999999962 40.01462499896719
10.829999999999961 39.99108928338186
10.85999999999996 39.98121740346973
10.88999999999996 39.98550984906535
10.919999999999959 40.002534253554046
10.949999999999958 40.02927557703105
10.979999999999958 40.06166776473276
11.009999999999957 40.095221218235444
11.039999999999957 40.1256550608598
11.069999999999956 40.14944998559092
11.099999999999955 40.16425471310027
11.129999999999955 40.169104017648415
11.159999999999954 40.16443462284529
11.189999999999953 40.151913527196086
11.219999999999953 40.13411712409676
11.249999999999952 40.11411616956763
11.279999999999951 40.09502954082356
11.30999999999995 40.079608455248916
11.33999999999995 40.06990353205805
11.36999999999995 40.06705171427412
11.399999999999949 40.07120112043818
11.429999999999948 40.08157240169816
11.459999999999948 40.09663725608016
11.489999999999947 40.114380965182086
11.519999999999946 40.13260742362376
11.549999999999946 40.14924286486579
11.579999999999945 40.162598226276266
11.609999999999944 40.17155889090679
11.639999999999944 40.17568285945192
11.669999999999943 40.17520223685018
11.699999999999942 40.17093616525641
11.729999999999942 40.16413444165458
11.759999999999941 40.156278441263055
11.78999999999994 40.148869126217704
11.81999999999994 40.143230873879226
11.84999999999994 40.14035513788747
11.879999999999939 40.140800602121594
11.909999999999938 40.14465771755756
11.939999999999937 40.15157646246348
11.969999999999937 40.160848308190396
11.999999999999936 40.171527237010984
12.029999999999935 40.18257095435718
12.059999999999935 40.19298249887897
12.089999999999934 40.201934154073705
12.119999999999933 40.20885933370566
12.149999999999933 40.213503396030404
12.179999999999932 40.21593031017851
12.209999999999932 40.21648803346499
12.239999999999931 40.21574043816676
12.26999999999993 40.21437725642481
12.29999999999993 40.21311538012997
12.329999999999929 40.2126048863367
12.359999999999928 40.21335134221804
12.389999999999928 40.21566292820685
12.419999999999927 40.219627049530736
12.449999999999926 40.22511695802859
12.479999999999926 40.23182510242364
12.509999999999925 40.23931679055492
12.539999999999925 40.24709565543525
12.569999999999924 40.25467164333019
12.599999999999923 40.261622658518185
12.629999999999923 40.26764251449341
12.659999999999922 40.27257018399432
12.689999999999921 40.27639814770552
12.71999999999992 40.279260500789576
12.74999999999992 40.281404000290216
12.77999999999992 40.28314712333122
12.809999999999919 40.28483337024113
12.839999999999918 40.28678523547067
12.869999999999918 40.28926466320915
12.899999999999917 40.29244445465068
12.929999999999916 40.29639332917927
12.959999999999916 40.30107541271891
12.989999999999915 40.306363028209354
13.019999999999914 40.31206008567792
13.049999999999914 40.31793224611278
13.079999999999913 40.32373947257142
13.109999999999912 40.329266657600414
13.139999999999912 40.33434863550804
13.169999999999911 40.33888687791676
13.19999999999991 40.342856432564226
13.22999999999991 40.34630302818129
13.25999999999991 40.34933150253296
13.289999999999909 40.3520877092487
13.319999999999908 40.35473672688669
13.349999999999907 40.357440413441594
13.379999999999907 40.360337205375195
13.409999999999906 40.36352651656884
13.439999999999905 40.36705931842454
13.469999999999905 40.37093557529931
13.499999999999904 40.37510832504506
13.529999999999903 40.37949336343318
13.559999999999903 40.38398289655282
13.589999999999902 40.388461137028386
13.619999999999902 40.39281970220996
13.6499999999999 40.396970888219926
13.6799999999999 40.40085728086579
13.7099999999999 40.404456762157494
13.739999999999899 40.40778265905206
13.769999999999898 40.410879382126296
13.799999999999898 40.4138144855045
13.829999999999897 40.41666839302287
13.859999999999896 40.419523275091294
13.889999999999896 40.42245258976156
13.919999999999895 40.42551255780957
13.949999999999894 40.42873649383232
13.979999999999894 40.43213249217202
14.009999999999893 40.43568450097859
14.039999999999893 40.43935635628674
14.069999999999892 40.4430980154322
14.099999999999891 40.44685305127979
14.12999999999989 40.45056634635481
14.15999999999989 40.45419099401216
14.18999999999989 40.457693658877766
14.219999999999889 40.46105782423644
14.249999999999888 40.46428463743354
14.279999999999887 40.46739146456691
14.309999999999887 40.470408499319966
14.339999999999886 40.473373980450326
14.369999999999886 40.47632876558948
14.399999999999885 40.47931099928681
14.429999999999884 40.48235154953399
14.459999999999884 40.485470720583116
14.489999999999883 40.488676556741886
14.519999999999882 40.49196481799976
14.549999999999882 40.49532050944294
14.579999999999881 40.49872066453322
14.60999999999988 40.50213793961205
14.63999999999988 40.50554449613765
14.66999999999988 40.508915648331104
14.699999999999878 40.512232831990374
14.729999999999878 40.51548557668738
14.759999999999877 40.51867229340826
14.789999999999877 40.52179987358292
14.819999999999876 40.5248822239053
14.849999999999875 40.52793800938197
14.879999999999875 40.530987946384315
14.909999999999874 40.53405203793214
14.939999999999873 40.53714712027371
14.969999999999873 40.54028499963931
14.999999999999872 40.543471365052646
15.029999999999871 40.54670555140893
15.05999999999987 40.54998113868753
15.08999999999987 40.55328726096074
15.11999999999987 40.55661036925475
15.149999999999869 40.55993617381667
15.179999999999868 40.56325151482004
15.209999999999868 40.566545904802766
15.239999999999867 40.56981255653165
15.269999999999866 40.57304888626456
15.299999999999866 40.5762564925615
15.329999999999865 40.57944061960208
15.359999999999864 40.58260918673907
15.389999999999864 40.58577152808558
15.419999999999863 40.588937022594024
15.449999999999863 40.59211378252341
15.479999999999862 40.59530755937977
15.509999999999861 40.59852101808242
15.53999999999986 40.60175344309311
15.56999999999986 40.60500090470507
15.59999999999986 40.6082568236266
15.629999999999859 40.61151288012987
15.659999999999858 40.614760073124096
15.689999999999857 40.61798979731501
15.719999999999857 40.62119480448937
15.749999999999856 40.62436996000418
15.779999999999855 40.62751265125278
15.809999999999855 40.63062280671818
15.839999999999854 40.63370256973213
15.869999999999854 40.636755736568446
15.899999999999853 40.63978703468008
15.929999999999852 40.64280134379712
15.959999999999852 40.64580297592603
15.989999999999851 40.64879513310874
16.01999999999985 40.651779588202764
16.04999999999985 40.6547565786369
16.079999999999853 40.6577249257761
16.109999999999854 40.66068230380871
16.139999999999855 40.66362560598625
16.169999999999856 40.66655134339079
16.199999999999857 40.66945605278722
16.22999999999986 40.672336681180056
16.25999999999986 40.675190945291845
16.28999999999986 40.678017632370654
16.31999999999986 40.68081677453838
16.349999999999863 40.68358966384371
16.379999999999864 40.68633872686645
