# Results for "element" with Id # 2606608 for search config "initial" at position: x0: 125; y0: 0; z0: 310.344827586
# time VELOCITY_X
0.03 0.007311564538284498
0.06 0.030641574580344336
0.09 0.07762218564648812
0.12 0.153635383546446
0.15 0.26124870222812885
0.18 0.4000447201561305
0.21 0.5667640168089119
0.24 0.7557116408351404
0.27 0.9593743609814842
0.30000000000000004 1.1691848479375666
0.33000000000000007 1.3763586864664565
0.3600000000000001 1.5727245617571877
0.3900000000000001 1.751469204761322
0.42000000000000015 1.9077277747143504
0.4500000000000002 2.0389666634896533
0.4800000000000002 2.145127818696511
0.5100000000000002 2.2285289412293965
0.5400000000000003 2.2935391567253864
0.5700000000000003 2.3460719287550913
0.6000000000000003 2.392953305730912
0.6300000000000003 2.441232915317025
0.6600000000000004 2.497506535601407
0.6900000000000004 2.567313783500504
0.7200000000000004 2.6546632741897644
0.7500000000000004 2.7617227666717685
0.7800000000000005 2.888694857609925
0.8100000000000005 3.0338813524569472
0.8400000000000005 3.1939227997738593
0.8700000000000006 3.3641847661451894
0.9000000000000006 3.5392503434109694
0.9300000000000006 3.713469573429628
0.9600000000000006 3.8815122086149523
0.9900000000000007 4.0388705232421485
1.0200000000000007 4.182264637586909
1.0500000000000007 4.309913223276834
1.0800000000000007 4.4216468130115905
1.1100000000000008 4.5188576614473845
1.1400000000000008 4.604297195895066
1.1700000000000008 4.6817475390592325
1.2000000000000008 4.755605379530481
1.2300000000000009 4.830423691172559
1.260000000000001 4.910458531543671
1.290000000000001 4.999265192522475
1.320000000000001 5.099380537105189
1.350000000000001 5.212118166245902
1.380000000000001 5.33749109443408
1.410000000000001 5.474264105804329
1.440000000000001 5.620125912520773
1.470000000000001 5.771960428669026
1.500000000000001 5.92618779074821
1.5300000000000011 6.079139615514309
1.5600000000000012 6.227430352780106
1.5900000000000012 6.3682873871273165
1.6200000000000012 6.499807479676335
1.6500000000000012 6.621115310909032
1.6800000000000013 6.732410785159719
1.7100000000000013 6.834903962068626
1.7400000000000013 6.9306485499664365
1.7700000000000014 7.022295358678468
1.8000000000000014 7.112794669105234
1.8300000000000014 7.205080593297639
1.8600000000000014 7.301770741673741
1.8900000000000015 7.40491138438062
1.9200000000000015 7.51579220596339
1.9500000000000015 7.6348466495526806
1.9800000000000015 7.761644573996044
2.0100000000000016 7.894974414633811
2.0400000000000014 8.033003070007492
2.070000000000001 8.173494125111775
2.100000000000001 8.314059552205533
2.130000000000001 8.452417135013533
2.1600000000000006 8.586626036947523
2.1900000000000004 8.715276066801989
2.22 8.837612034080708
2.25 8.95358242352894
2.28 9.063810395547717
2.3099999999999996 9.169493855666946
2.3399999999999994 9.272248862297829
2.369999999999999 9.373916197839208
2.399999999999999 9.476353895853055
2.429999999999999 9.581238824685581
2.4599999999999986 9.689898143414846
2.4899999999999984 9.803187085014146
2.5199999999999982 9.921423650033475
2.549999999999998 10.0443841318109
2.579999999999998 10.171356718863413
2.6099999999999977 10.30124433922912
2.6399999999999975 10.432703097436223
2.6699999999999973 10.564299513785675
2.699999999999997 10.69466859267027
2.729999999999997 10.822655603558713
2.7599999999999967 10.947427148963717
2.7899999999999965 11.06854124741114
2.8199999999999963 11.18597125420303
2.849999999999996 11.300083817987458
2.879999999999996 11.411576069207731
2.9099999999999957 11.521381357830116
2.9399999999999955 11.63055564416523
2.9699999999999953 11.740157922069942
2.999999999999995 11.851137792128617
3.029999999999995 11.964241648715287
3.0599999999999947 12.07994619774926
3.0899999999999945 12.198424586630217
3.1199999999999943 12.319546642143312
3.149999999999994 12.4429110575471
3.179999999999994 12.567904181051427
3.2099999999999937 12.693777606976669
3.2399999999999936 12.819735293000628
3.2699999999999934 12.945020489699157
3.299999999999993 13.068993363004815
3.329999999999993 13.191191703473024
3.3599999999999928 13.31136934108116
3.3899999999999926 13.429509511710837
3.4199999999999924 13.545813227519561
3.449999999999992 13.66066531516173
3.479999999999992 13.77458297222468
3.509999999999992 13.888153246964295
3.5399999999999916 14.001966653028882
3.5699999999999914 14.11655413345844
3.599999999999991 14.232333839821479
3.629999999999991 14.349572825539486
3.659999999999991 14.46836691344062
3.6899999999999906 14.588639930893555
3.7199999999999904 14.710161390186249
3.7499999999999902 14.83257978964397
3.77999999999999 14.955467181538856
3.80999999999999 15.078369653363248
3.8399999999999896 15.200857974098398
3.8699999999999894 15.322572903868812
3.8999999999999893 15.443260500319159
3.929999999999989 15.562794057629253
3.959999999999989 15.681180941554018
3.9899999999999887 15.798554325170564
4.019999999999989 15.915151509769297
4.049999999999989 16.0312819207263
4.079999999999989 16.147288865753065
4.10999999999999 16.263509636715753
4.13999999999999 16.380238489342585
4.16999999999999 16.497696479405562
4.19999999999999 16.616011158413997
4.229999999999991 16.735207860918425
4.259999999999991 16.855212925492964
4.289999999999991 16.975867818710842
4.319999999999991 17.09695195551915
4.349999999999992 17.218211145662156
4.379999999999992 17.339388124717022
4.409999999999992 17.460251591471273
4.439999999999992 17.580620548669614
4.469999999999993 17.70038146755835
4.499999999999993 17.819496763325958
4.529999999999993 17.938004160077092
4.559999999999993 18.056007584426187
4.589999999999994 18.173661165383077
4.619999999999994 18.29114860290409
4.649999999999994 18.40866054934742
4.679999999999994 18.526372702224936
4.709999999999995 18.64442704475058
4.739999999999995 18.762918149140898
4.769999999999995 18.881885751491204
4.799999999999995 19.00131401044952
4.829999999999996 19.12113707902604
4.859999999999996 19.24124992517035
4.889999999999996 19.36152281831466
4.919999999999996 19.481817593990623
4.949999999999997 19.60200374204158
4.979999999999997 19.721972519707975
5.009999999999997 19.841647638296138
5.039999999999997 19.960991563617583
5.069999999999998 20.080007028369415
5.099999999999998 20.19873392626679
5.129999999999998 20.31724225586131
5.159999999999998 20.435622184034553
5.189999999999999 20.55397254247309
5.219999999999999 20.672389153164932
5.249999999999999 20.79095430027317
5.279999999999999 20.90972844572966
5.31 21.02874495934935
5.34 21.148008245390983
5.37 21.267495241393814
5.4 21.387159895904933
5.430000000000001 21.50693991962025
5.460000000000001 21.626764903516275
5.490000000000001 21.746564801601437
5.520000000000001 21.866277802782168
5.550000000000002 21.98585674919024
5.580000000000002 22.10527347411896
5.610000000000002 22.224520707947388
5.640000000000002 22.343611495954413
5.670000000000003 22.462576356815035
5.700000000000003 22.581458650895584
5.730000000000003 22.700308801696313
5.760000000000003 22.819178096905894
5.790000000000004 22.938112802901585
5.820000000000004 23.057149241953706
5.850000000000004 23.176310331852754
5.880000000000004 23.29560388778596
5.910000000000005 23.415022766672298
5.940000000000005 23.534546714750356
5.970000000000005 23.65414559841261
6.000000000000005 23.773783553783186
6.030000000000006 23.89342351792532
6.060000000000006 24.013031593728673
6.090000000000006 24.132580755230155
6.120000000000006 24.252053508409894
6.150000000000007 24.371443270223505
6.180000000000007 24.490754392358077
6.210000000000007 24.610000918110913
6.240000000000007 24.72920430255668
6.270000000000008 24.848390432340885
6.300000000000008 24.96758633893209
6.330000000000008 25.086817008502358
6.360000000000008 25.206102653912993
6.390000000000009 25.325456733832578
6.420000000000009 25.444884898274104
6.450000000000009 25.56438491772708
6.480000000000009 25.683947534881565
6.51000000000001 25.80355807196953
6.54000000000001 25.923198560402767
6.57000000000001 26.042850101549732
6.60000000000001 26.162495166357527
6.6300000000000106 26.28211957314024
6.660000000000011 26.401713933516362
6.690000000000011 26.521274438562127
6.720000000000011 26.640802937144603
6.7500000000000115 26.760306350138997
6.780000000000012 26.879795535681506
6.810000000000012 26.999283778040787
6.840000000000012 27.118785102329387
6.8700000000000125 27.238312625601438
6.900000000000013 27.357877133749042
6.930000000000013 27.477486031213576
6.960000000000013 27.59714276072964
6.9900000000000135 27.716846727037204
7.020000000000014 27.83659369936958
7.050000000000014 27.956376609767425
7.080000000000014 28.076186623144153
7.1100000000000145 28.196014335659154
7.140000000000015 28.31585094818938
7.170000000000015 28.435689279044905
7.200000000000015 28.5555245105183
7.2300000000000155 28.675354598244784
7.260000000000016 28.795180320844523
7.290000000000016 28.9150049885833
7.320000000000016 29.03483386806311
7.3500000000000165 29.154673410786756
7.380000000000017 29.274530390551586
7.410000000000017 29.39441105622185
7.440000000000017 29.51432040209681
7.4700000000000175 29.634261629583314
7.500000000000018 29.75423585134002
7.530000000000018 29.87424205595501
7.560000000000018 29.99427731946914
7.5900000000000185 30.114337224229846
7.620000000000019 30.234416423291837
7.650000000000019 30.354509271767775
7.680000000000019 30.47461044779063
7.7100000000000195 30.59471549146012
7.74000000000002 30.714821201506012
7.77000000000002 30.83492585622148
7.80000000000002 30.95502924100501
7.8300000000000205 31.075132496123643
7.860000000000021 31.195237817102146
7.890000000000021 31.315348054913194
7.920000000000021 31.435466269764376
7.9500000000000215 31.555595298981736
7.980000000000022 31.675737382743996
8.010000000000021 31.795893888812135
8.04000000000002 31.916065161896043
8.07000000000002 32.03625050547685
8.10000000000002 32.15644828375405
8.130000000000019 32.276656120550996
8.160000000000018 32.39687116423429
8.190000000000017 32.51709037886075
8.220000000000017 32.63731081990624
8.250000000000016 32.75752986084453
8.280000000000015 32.87774533937822
8.310000000000015 32.99795561560183
8.340000000000014 33.11815953909857
8.370000000000013 33.23835633278775
8.400000000000013 33.358545409398516
8.430000000000012 33.478726144907014
8.460000000000012 33.59889764265962
8.49000000000001 33.719058512566804
8.52000000000001 33.83920670449893
8.55000000000001 33.959339394914046
8.580000000000009 34.07945294544831
8.610000000000008 34.199542945316765
8.640000000000008 34.31960433703863
8.670000000000007 34.43963158903398
8.700000000000006 34.55961890407775
8.730000000000006 34.67956043878589
8.760000000000005 34.79945051454707
8.790000000000004 34.91928379722542
8.820000000000004 35.039055431631986
8.850000000000003 35.158761119679475
8.880000000000003 35.27839714233623
8.910000000000002 35.39796033275941
8.940000000000001 35.51744801136846
8.97 35.63685789645956
9.0 35.756188012221074
9.03 35.87543660558028
9.059999999999999 35.99460209256716
9.089999999999998 36.113683041421446
9.119999999999997 36.23267819062911
9.149999999999997 36.35158648808691
9.179999999999996 36.470407155680576
9.209999999999996 36.58913976636172
9.239999999999995 36.707784333409904
9.269999999999994 36.82634138727353
9.299999999999994 36.94481203959479
9.329999999999993 37.0631980263504
9.359999999999992 37.18150173288831
9.389999999999992 37.29972618906714
9.419999999999991 37.41787504105767
9.44999999999999 37.53595250643284
9.47999999999999 37.65396330581467
9.50999999999999 37.7719125797526
9.539999999999988 37.889805780836284
9.569999999999988 38.007648557893084
9.599999999999987 38.125446667063855
9.629999999999987 38.243205919074306
9.659999999999986 38.360932159417395
9.689999999999985 38.47863129334334
9.719999999999985 38.59630928802632
9.749999999999984 38.713972190603656
9.779999999999983 38.83162613373628
9.809999999999983 38.949277337026956
9.839999999999982 39.066932150325435
9.869999999999981 39.18459705654119
9.89999999999998 39.30227851217805
9.92999999999998 39.41998262857513
9.95999999999998 39.53771506762309
9.989999999999979 39.655481021669196
10.019999999999978 39.766178355475326
10.049999999999978 39.858209344878134
10.079999999999977 39.92126971479389
10.109999999999976 39.94895090466431
10.139999999999976 39.93979689378039
10.169999999999975 39.89735302944558
10.199999999999974 39.8294441923185
10.229999999999974 39.74687855523755
10.259999999999973 39.66180156724679
10.289999999999973 39.58595101812501
10.319999999999972 39.52906260236995
10.349999999999971 39.49764195933663
10.37999999999997 39.49425746541967
10.40999999999997 39.51742697024275
10.43999999999997 39.562083777745755
10.469999999999969 39.62052412353691
10.499999999999968 39.68367196673118
10.529999999999967 39.742457129303446
10.559999999999967 39.78909642496261
10.589999999999966 39.81809499878359
10.619999999999965 39.8268406286407
10.649999999999965 39.81573658490818
10.679999999999964 39.78789410179878
10.709999999999964 39.7484701828099
10.739999999999963 39.703780197466415
10.769999999999962 39.660333171081
10.799999999999962 39.62393154774556
10.829999999999961 39.598951637982694
10.85999999999996 39.58788269460555
10.88999999999996 39.59115964891129
10.919999999999959 39.607282364866265
10.949999999999958 39.63317860324073
10.979999999999958 39.66474133426549
11.009999999999957 39.69745567896251
11.039999999999957 39.72702700065743
11.069999999999956 39.749928884613546
11.099999999999955 39.763806347971155
11.129999999999955 39.767693258031684
11.159999999999954 39.762029872866584
11.189999999999953 39.7484937129329
11.219999999999953 39.72968043746396
11.249999999999952 39.70868845446504
11.279999999999951 39.6886697122488
11.30999999999995 39.672408796711316
11.33999999999995 39.66198394607837
11.36999999999995 39.6585485639542
11.399999999999949 39.6622527348667
11.429999999999948 39.67230422318658
11.459999999999948 39.687149703127055
11.489999999999947 39.70474242672754
11.519999999999946 39.72285357444684
11.549999999999946 39.73938205578716
11.579999999999945 39.752621419358064
11.609999999999944 39.761451775947044
11.639999999999944 39.76543759984311
11.669999999999943 39.76482667680809
11.699999999999942 39.760459139468864
11.729999999999942 39.75360683586921
11.759999999999941 39.7457705453542
11.78999999999994 39.7384654470731
11.81999999999994 39.733023836528425
11.84999999999994 39.73043899433051
11.879999999999939 39.731266501639865
11.909999999999938 39.735590421839255
11.939999999999937 39.74305270574974
11.969999999999937 39.7529364951157
11.999999999999936 39.76428804649524
12.029999999999935 39.77605841769593
12.059999999999935 39.7872452327648
12.089999999999934 39.797016604193416
12.119999999999933 39.80480302005606
12.149999999999933 39.81034821705905
12.179999999999932 39.81371592959455
12.209999999999932 39.81525529467056
12.239999999999931 39.81553266489354
12.26999999999993 39.815241221130556
12.29999999999993 39.815101729478975
12.329999999999929 39.81576789805993
12.359999999999928 39.81774797410288
12.389999999999928 39.82135124885872
12.419999999999927 39.82666425850846
12.449999999999926 39.83355726537659
12.479999999999926 39.84171778039268
12.509999999999925 39.85070468286346
12.539999999999925 39.860014340493656
12.569999999999924 39.86914933659902
12.599999999999923 39.87768081972395
12.629999999999923 39.8852970053618
12.659999999999922 39.891832739644556
12.689999999999921 39.897277895374486
12.71999999999992 39.901765280042476
12.74999999999992 39.9055413003486
12.77999999999992 39.908924519259884
12.809999999999919 39.912258445067756
12.839999999999918 39.91586506250407
12.869999999999918 39.92000499769473
12.899999999999917 39.924848805557474
12.929999999999916 39.93046206655312
12.959999999999916 39.936805034375666
12.989999999999915 39.94374566636939
13.019999999999914 39.95108329095485
13.049999999999914 39.95857904313067
13.079999999999913 39.96598864048446
13.109999999999912 39.97309316883142
13.139999999999912 39.97972419534898
13.169999999999911 39.98578051802193
13.19999999999991 39.99123511888366
13.22999999999991 39.99613225806351
13.25999999999991 40.00057586422132
13.289999999999909 40.00471138193773
13.319999999999908 40.00870390579705
13.349999999999907 40.01271564263811
13.379999999999907 40.01688561511599
13.409999999999906 40.02131396912852
13.439999999999905 40.02605246523709
13.469999999999905 40.031101831097885
13.499999999999904 40.03641577575123
13.529999999999903 40.04191063690952
13.559999999999903 40.04747904122919
13.589999999999902 40.053005558339294
13.619999999999902 40.05838218684502
13.6499999999999 40.06352173742052
13.6799999999999 40.068367540029186
13.7099999999999 40.07289850732216
13.739999999999899 40.07712930124423
13.769999999999898 40.08110594611491
13.799999999999898 40.084897836720344
13.829999999999897 40.088587380935785
13.859999999999896 40.09225876288687
13.889999999999896 40.09598737802854
13.919999999999895 40.09983122401074
13.949999999999894 40.10382516862072
13.979999999999894 40.10797860307487
14.009999999999893 40.11227651722702
14.039999999999893 40.11668355322676
14.069999999999892 40.12115025726268
14.099999999999891 40.12562059572796
14.12999999999989 40.13003966780903
14.15999999999989 40.134360618452746
14.18999999999989 40.138550042831284
14.219999999999889 40.14259130093326
14.249999999999888 40.14648541686295
14.279999999999887 40.150249681821265
14.309999999999887 40.15391429842907
14.339999999999886 40.15751760653896
14.369999999999886 40.16110065170877
14.399999999999885 40.1647018353768
14.429999999999884 40.1683523322273
14.459999999999884 40.17207277910923
14.489999999999883 40.17587155368994
14.519999999999882 40.17974472377613
14.549999999999882 40.18367755459596
14.579999999999881 40.18764727374513
14.60999999999988 40.191626658792146
14.63999999999988 40.195587927937346
14.66999999999988 40.19950640647967
14.699999999999878 40.20336352188398
14.729999999999878 40.20714880916463
14.759999999999877 40.21086072879973
14.789999999999877 40.21450629245079
14.819999999999876 40.21809960824495
14.849999999999875 40.22165961923621
14.879999999999875 40.225207379138844
14.909999999999874 40.22876327369063
14.939999999999873 40.23234456317151
14.969999999999873 40.235963520097584
14.999999999999872 40.239626349987766
15.029999999999871 40.243332963867154
15.05999999999987 40.247077588226524
15.08999999999987 40.250850096317684
15.11999999999987 40.25463777747563
15.149999999999869 40.25842725653938
15.179999999999868 40.262206311777284
15.209999999999868 40.26596533116363
15.239999999999867 40.26969823561058
15.269999999999866 40.273402915790726
15.299999999999866 40.27708120407392
15.329999999999865 40.28073837742825
15.359999999999864 40.28438225026146
15.389999999999864 40.288021974174285
15.419999999999863 40.291666715275646
15.449999999999863 40.2953243575745
15.479999999999862 40.29900038511296
15.509999999999861 40.30269711173897
15.53999999999986 40.30641333569476
15.56999999999986 40.31014446165698
15.59999999999986 40.31388305055656
15.629999999999859 40.31761977471027
15.659999999999858 40.321344546322784
15.689999999999857 40.32504768530829
15.719999999999857 40.328720971650725
15.749999999999856 40.332358488598736
15.779999999999855 40.335957059851054
15.809999999999855 40.33951622253133
15.839999999999854 40.34303780783357
15.869999999999854 40.346525295317235
15.899999999999853 40.349983037644854
15.929999999999852 40.353415457773444
15.959999999999852 40.356826349798894
15.989999999999851 40.36021841170236
16.01999999999985 40.36359302684638
16.04999999999985 40.36695024017156
16.079999999999853 40.37028893218268
16.109999999999854 40.373607092858975
16.139999999999855 40.37690214182232
16.169999999999856 40.38017124234225
16.199999999999857 40.383411614717744
16.22999999999986 40.386620846916514
16.25999999999986 40.38979722634154
16.28999999999986 40.3929400656822
16.31999999999986 40.3960499229712
16.349999999999863 40.399128663654196
