# Results for "element" with Id # 2675911 for search config "initial" at position: x0: 125; y0: 0; z0: 362.068965517
# time VELOCITY_X
0.03 0.007359519679027722
0.06 0.030844680156911327
0.09 0.0781460363215141
0.12 0.15469736298650555
0.15 0.2631052770482615
0.18 0.4029702941790903
0.21 0.5710203094163385
0.24 0.761509998906262
0.27 0.9668372970293359
0.30000000000000004 1.1783156379140887
0.33000000000000007 1.3870278027289271
0.3600000000000001 1.5846788375247214
0.3900000000000001 1.7643647271734324
0.42000000000000015 1.9211819721868237
0.4500000000000002 2.0526205269532194
0.4800000000000002 2.158706871967034
0.5100000000000002 2.2418919352955182
0.5400000000000003 2.3067061847215595
0.5700000000000003 2.3592277869271263
0.6000000000000003 2.406426367994262
0.6300000000000003 2.455453451080187
0.6600000000000004 2.51295085256538
0.6900000000000004 2.5844416373600954
0.7200000000000004 2.6738560970107796
0.7500000000000004 2.7832298023242257
0.7800000000000005 2.9125935430705896
0.8100000000000005 3.0600572486553643
0.8400000000000005 3.222072825037654
0.8700000000000006 3.393845204358615
0.9000000000000006 3.569847991385477
0.9300000000000006 3.744390897994066
0.9600000000000006 3.9121820331276087
0.9900000000000007 4.068829536002708
1.0200000000000007 4.211234403007899
1.0500000000000007 4.337838793436355
1.0800000000000007 4.448710249831886
1.1100000000000008 4.5454601589971535
1.1400000000000008 4.631012166308868
1.1700000000000008 4.709251101648501
1.2000000000000008 4.7845936028159635
1.2300000000000009 4.861527286172955
1.260000000000001 4.944165640363764
1.290000000000001 5.035861536555145
1.320000000000001 5.138913990117892
1.350000000000001 5.25439196585867
1.380000000000001 5.382086687256905
1.410000000000001 5.520591239753406
1.440000000000001 5.667494298196069
1.470000000000001 5.819664458321405
1.500000000000001 5.9735937910547054
1.5300000000000011 6.125764416754937
1.5600000000000012 6.273000743087001
1.5900000000000012 6.412772473237151
1.6200000000000012 6.54341962253242
1.6500000000000012 6.664279715627098
1.6800000000000013 6.775708210070786
1.7100000000000013 6.87899466674029
1.7400000000000013 6.97618796127832
1.7700000000000014 7.06985268870128
1.8000000000000014 7.1627849108146915
1.8300000000000014 7.257718133980308
1.8600000000000014 7.357049742852851
1.8900000000000015 7.462614472696699
1.9200000000000015 7.5755254238365985
1.9500000000000015 7.696095406202016
1.9800000000000015 7.823842858911789
2.0100000000000016 7.957578051829373
2.0400000000000014 8.095557477994166
2.070000000000001 8.235687971959202
2.100000000000001 8.375757735839986
2.130000000000001 8.513669465594315
2.1600000000000006 8.647651398343472
2.1900000000000004 8.776425230913844
2.22 8.899315148121575
2.25 9.016289053015903
2.28 9.127930653451802
2.3099999999999996 9.235348505720758
2.3399999999999994 9.340034546534051
2.369999999999999 9.443689426277064
2.399999999999999 9.548034605565496
2.429999999999999 9.654631575757886
2.4599999999999986 9.76472677939912
2.4899999999999984 9.87913718115336
2.5199999999999982 9.998186466419755
2.549999999999998 10.121696084332111
2.579999999999998 10.249029452801437
2.6099999999999977 10.379182159571995
2.6399999999999975 10.510906498586463
2.6699999999999973 10.642855571190612
2.699999999999997 10.773730747806296
2.729999999999997 10.902416642458467
2.7599999999999967 11.028089791796228
2.7899999999999965 11.150290695338741
2.8199999999999963 11.268953320928413
2.849999999999996 11.384391077665725
2.879999999999996 11.497243016848417
2.9099999999999957 11.608388138740585
2.9399999999999955 11.718838701376853
2.9699999999999953 11.829625097550945
2.999999999999995 11.941685079135578
3.029999999999995 12.055768931839289
3.0599999999999947 12.172369852544497
3.0899999999999945 12.291685593085436
3.1199999999999943 12.413613763022877
3.149999999999994 12.53777947161871
3.179999999999994 12.663590614178117
3.2099999999999937 12.790313394835154
3.2399999999999936 12.917158901281345
3.2699999999999934 13.043370835925979
3.299999999999993 13.16830489765838
3.329999999999993 13.291491706936045
3.3599999999999928 13.41267738303359
3.3899999999999926 13.531838608481007
3.4199999999999924 13.649171967604744
3.449999999999992 13.765060148526363
3.479999999999992 13.880019965235434
3.509999999999992 13.994638849744556
3.5399999999999916 14.10950734130077
3.5699999999999914 14.22515510296801
3.599999999999991 14.341997184812989
3.629999999999991 14.460295767787763
3.659999999999991 14.580140648224344
3.6899999999999906 14.701449523867108
3.7199999999999904 14.823986933221157
3.7499999999999902 14.94739874787212
3.77999999999999 15.071257599077812
3.80999999999999 15.195113684037437
3.8399999999999896 15.318545109439246
3.8699999999999894 15.44120229900603
3.8999999999999893 15.562841940092744
3.929999999999989 15.683347337328255
3.959999999999989 15.802733711027045
3.9899999999999887 15.921138711453912
4.019999999999989 16.03880004033818
4.049999999999989 16.156023384626312
4.079999999999989 16.27314475490232
4.10999999999999 16.390491706122244
4.13999999999999 16.508347784982256
4.16999999999999 16.626923941719138
4.19999999999999 16.746339659693476
4.229999999999991 16.866615318687433
4.259999999999991 16.987675982252842
4.289999999999991 17.109365516821853
4.319999999999991 17.231468867181746
4.349999999999992 17.353739531866307
4.379999999999992 17.475928871744586
4.409999999999992 17.597813875922892
4.439999999999992 17.71922037790994
4.469999999999993 17.840039400841423
4.499999999999993 17.9602352170609
4.529999999999993 18.079844725996725
4.559999999999993 18.19896874860892
4.589999999999994 18.31775671458873
4.619999999999994 18.436386871005976
4.649999999999994 18.55504451362344
4.679999999999994 18.673900810344527
4.709999999999995 18.79309455896035
4.739999999999995 18.91271874456611
4.769999999999995 19.032813103668932
4.799999999999995 19.153363147643212
4.829999999999996 19.274305343622085
4.859999999999996 19.395537473553382
4.889999999999996 19.516932670799918
4.919999999999996 19.638355313503354
4.949999999999997 19.759676862767705
4.979999999999997 19.880789861731433
5.009999999999997 20.00161863427084
5.039999999999997 20.122125691525323
5.069999999999998 20.242313403825616
5.099999999999998 20.362221064140556
5.129999999999998 20.481917978503304
5.159999999999998 20.601493630178442
5.189999999999999 20.721046224938608
5.219999999999999 20.840671021512204
5.249999999999999 20.9604497814662
5.279999999999999 21.080442457653184
5.31 21.2006819116612
5.34 21.321172054493157
5.37 21.441889389613163
5.4 21.56278755631865
5.430000000000001 21.68380415450825
5.460000000000001 21.804868924856173
5.490000000000001 21.925912263940184
5.520000000000001 22.046873085271002
5.550000000000002 22.167705178068026
5.580000000000002 22.288381442324187
5.610000000000002 22.40889566218698
5.640000000000002 22.52926178199964
5.670000000000003 22.649510936932522
5.700000000000003 22.76968672902344
5.730000000000003 22.88983940671884
5.760000000000003 23.01001968444894
5.790000000000004 23.130272932631144
5.820000000000004 23.250634376516548
5.850000000000004 23.371125784443755
5.880000000000004 23.49175392257381
5.910000000000005 23.612510833342952
5.940000000000005 23.733375780185277
5.970000000000005 23.854318523727272
6.000000000000005 23.975303461408192
6.030000000000006 24.096294097253026
6.060000000000006 24.217257305593087
6.090000000000006 24.33816691223424
6.120000000000006 24.459006227097916
6.150000000000007 24.579769308991107
6.180000000000007 24.700460903829462
6.210000000000007 24.82109515457477
6.240000000000007 24.941693316407555
6.270000000000008 25.06228080977619
6.300000000000008 25.18288399817036
6.330000000000008 25.30352708229573
6.360000000000008 25.424229462539135
6.390000000000009 25.54500384248832
6.420000000000009 25.66585524186375
6.450000000000009 25.786780969917398
6.480000000000009 25.907771494684187
6.51000000000001 26.02881204282412
6.54000000000001 26.149884697715876
6.57000000000001 26.27097071338696
6.60000000000001 26.392052759188424
6.6300000000000106 26.513116841001754
6.660000000000011 26.634153696805082
6.690000000000011 26.755159542679866
6.720000000000011 26.876136126329317
6.7500000000000115 26.997090132184564
6.780000000000012 27.11803205248962
6.810000000000012 27.238974694787643
6.840000000000012 27.35993152462482
6.8700000000000125 27.480915049768324
6.900000000000013 27.601935431783374
6.930000000000013 27.722999468966446
6.960000000000013 27.844110044887852
6.9900000000000135 27.96526607444415
7.020000000000014 28.08646291855081
7.050000000000014 28.207693185600203
7.080000000000014 28.328947796956275
7.1100000000000145 28.4502171739098
7.140000000000015 28.57149239693126
7.170000000000015 28.692766202878605
7.200000000000015 28.81403371586179
7.2300000000000155 28.935292843774107
7.260000000000016 29.05654431838197
7.290000000000016 29.177791399070948
7.320000000000016 29.299039298967617
7.3500000000000165 29.4202944210349
7.380000000000017 29.541563507756074
7.410000000000017 29.66285280981921
7.440000000000017 29.78416737240007
7.4700000000000175 29.905510513383806
7.500000000000018 30.026883542143054
7.530000000000018 30.148285734678346
7.560000000000018 30.269714549888427
7.5900000000000185 30.391166044920173
7.620000000000019 30.512635427295542
7.650000000000019 30.634117667674616
7.680000000000019 30.755608096615124
7.7100000000000195 30.877102915550328
7.74000000000002 30.99859956579965
7.77000000000002 31.120096923757302
7.80000000000002 31.24159530891348
7.8300000000000205 31.363096318096012
7.860000000000021 31.484602518237942
7.890000000000021 31.606117044706902
7.920000000000021 31.727643158801264
7.9500000000000215 31.849183822749797
7.980000000000022 31.97074133866504
8.010000000000021 32.09231709136794
8.04000000000002 32.21391141874822
8.07000000000002 32.335523616337326
8.10000000000002 32.45715206525569
8.130000000000019 32.57879445948258
8.160000000000018 32.700448099282
8.190000000000017 32.82211021095372
8.220000000000017 32.943778251444904
8.250000000000016 33.06545016340297
8.280000000000015 33.187124551454886
8.310000000000015 33.30880076727368
8.340000000000014 33.43047889887041
8.370000000000013 33.55215967191983
8.400000000000013 33.67384428051243
8.430000000000012 33.795534171755676
8.460000000000012 33.917230815733284
8.49000000000001 34.03893548719097
8.52000000000001 34.160649089613564
8.55000000000001 34.28237203465595
8.580000000000009 34.404104189128496
8.610000000000008 34.52584489398335
8.640000000000008 34.64759305055535
8.670000000000007 34.76934725124762
8.700000000000006 34.891105940082625
8.730000000000006 35.0128675812808
8.760000000000005 35.13463081615579
8.790000000000004 35.256394589287
8.820000000000004 35.37815823076193
8.850000000000003 35.49992148640633
8.880000000000003 35.62168449634304
8.910000000000002 35.743447728482074
8.940000000000001 35.86521187785934
8.97 35.98697774645239
9.0 36.10874612236191
9.03 36.23051767170789
9.059999999999999 36.352292858116094
9.089999999999998 36.47407189623066
9.119999999999997 36.595854741782034
9.149999999999997 36.71764111612257
9.179999999999996 36.83943056212393
9.209999999999996 36.96122251999915
9.239999999999995 37.083016415353505
9.269999999999994 37.20481174335046
9.299999999999994 37.326608143500124
9.329999999999993 37.44840545427376
9.359999999999992 37.57020374665746
9.389999999999992 37.69200332936155
9.419999999999991 37.81380472984628
9.44999999999999 37.93560865634281
9.47999999999999 38.057415943967385
9.50999999999999 38.17922749017269
9.539999999999988 38.30104418083478
9.569999999999988 38.42286682159149
9.599999999999987 38.5446960916866
9.629999999999987 38.666532527261246
9.659999999999986 38.78837652825603
9.689999999999985 38.91022838485377
9.719999999999985 39.032088311020885
9.749999999999984 39.15395648875289
9.779999999999983 39.27583311449481
9.809999999999983 39.3977184337724
9.839999999999982 39.51961278027151
9.869999999999981 39.64151659749029
9.89999999999998 39.76343041487647
9.92999999999998 39.88535476914224
9.95999999999998 40.00729017395071
9.989999999999979 40.12923711155874
10.019999999999978 40.24378711252235
10.049999999999978 40.338978852257206
10.079999999999977 40.40441801703527
10.109999999999976 40.43392629937048
10.139999999999976 40.42649651598519
10.169999999999975 40.38617629187472
10.199999999999974 40.32117878239826
10.229999999999974 40.24246616377012
10.259999999999973 40.1620603573817
10.289999999999973 40.091336733347724
10.319999999999972 40.03953245256878
10.349999999999971 40.01265228617577
10.37999999999997 40.01288810680403
10.40999999999997 40.03859277458029
10.43999999999997 40.08477422217893
10.469999999999969 40.144009355282535
10.499999999999968 40.207627249518175
10.529999999999967 40.26698282069737
10.559999999999967 40.31463935365052
10.589999999999966 40.34530133830624
10.619999999999965 40.3563839227411
10.649999999999965 40.34816484028031
10.679999999999964 40.32352854602339
10.709999999999964 40.287370186789985
10.739999999999963 40.24577008979098
10.769999999999962 40.20507243447791
10.799999999999962 40.1710031897132
10.829999999999961 40.14794467098298
10.85999999999996 40.13845174421443
10.88999999999996 40.143054459623585
10.919999999999959 40.16034936277387
10.949999999999958 40.18734311932036
10.979999999999958 40.219981574289264
11.009999999999957 40.253778231931975
11.039999999999957 40.284449853082336
11.069999999999956 40.308473306890576
11.099999999999955 40.32349522991276
11.129999999999955 40.32855153712467
11.159999999999954 40.32408292305198
11.189999999999953 40.3117613571278
11.219999999999953 40.294166787601355
11.249999999999952 40.274370022962714
11.279999999999951 40.255485429566406
11.30999999999995 40.24025542769293
11.33999999999995 40.23071904265214
11.36999999999995 40.22800106611679
11.399999999999949 40.23223926467127
11.429999999999948 40.24264758569903
11.459999999999948 40.25769561557819
11.489999999999947 40.27537102542213
11.519999999999946 40.29348363199409
11.549999999999946 40.309967632408124
11.579999999999945 40.32314238088183
11.609999999999944 40.33190081436145
11.639999999999944 40.33580677822443
11.669999999999943 40.335096169257994
11.699999999999942 40.33058992235779
11.729999999999942 40.32353787845451
11.759999999999941 40.31541999003163
11.78999999999994 40.307734544208074
11.81999999999994 40.30180212975327
11.84999999999994 40.29860943733054
11.879999999999939 40.298709659475605
11.909999999999938 40.30218745509278
11.939999999999937 40.3086873635669
11.969999999999937 40.31749656484867
11.999999999999936 40.32766667669574
12.029999999999935 40.338155567811405
12.059999999999935 40.34796923652756
12.089999999999934 40.35628553750125
12.119999999999933 40.36254541206711
12.149999999999933 40.3665026651953
12.179999999999932 40.36822940370455
12.209999999999932 40.36808021776208
12.239999999999931 40.36662317129023
12.26999999999993 40.364549249194496
12.29999999999993 40.36257367542184
12.329999999999929 40.36134243008343
12.359999999999928 40.36135543458386
12.389999999999928 40.36291477510695
12.419999999999927 40.3661024387842
12.449999999999926 40.37078790607291
12.479999999999926 40.3766621542127
12.509999999999925 40.383291567829765
12.539999999999925 40.39018324496891
12.569999999999924 40.396852470454135
12.599999999999923 40.40288360037522
12.629999999999923 40.40797715567576
12.659999999999922 40.41197826307694
12.689999999999921 40.41488436100265
12.71999999999992 40.416832905257266
12.74999999999992 40.41807228632815
12.77999999999992 40.418921027157154
12.809999999999919 40.41972143092959
12.839999999999918 40.42079402129127
12.869999999999918 40.422398502229946
12.899999999999917 40.42470563688474
12.929999999999916 40.427782697652226
12.959999999999916 40.431593221502524
12.989999999999915 40.436009927169195
13.019999999999914 40.44083808887738
13.049999999999914 40.44584555883168
13.079999999999913 40.45079508907044
13.109999999999912 40.455474678112324
13.139999999999912 40.459722277325994
13.169999999999911 40.46344218969862
13.19999999999991 40.466611755374004
13.22999999999991 40.46927826947587
13.25999999999991 40.47154731163082
13.289999999999909 40.47356465174382
13.319999999999908 40.475494546593865
13.349999999999907 40.47749745833918
13.379999999999907 40.47971006339938
13.409999999999906 40.482229881711916
13.439999999999905 40.48510608504121
13.469999999999905 40.488337135861904
13.499999999999904 40.49187501792484
13.529999999999903 40.49563499952947
13.559999999999903 40.49950927776514
13.589999999999902 40.50338248129189
13.619999999999902 40.50714691647562
13.6499999999999 40.51071565215804
13.6799999999999 40.51403194542064
13.7099999999999 40.51707409910654
13.739999999999899 40.51985550775463
13.769999999999898 40.52242025421073
13.799999999999898 40.5248351789368
13.829999999999897 40.52717967450959
13.859999999999896 40.529534679437916
13.889999999999896 40.531972348278956
13.919999999999895 40.53454764973599
13.949999999999894 40.53729280374742
13.979999999999894 40.54021504256408
14.009999999999893 40.54329772002706
14.039999999999893 40.546504349292206
14.069999999999892 40.549784821960934
14.099999999999891 40.55308286493486
14.12999999999989 40.5563436859763
14.15999999999989 40.55952082302758
14.18999999999989 40.56258142702963
14.219999999999889 40.56550942330884
14.249999999999888 40.56830629345976
14.279999999999887 40.57098958225004
14.309999999999887 40.573589482266286
14.339999999999886 40.57614405994099
14.369999999999886 40.578693855841195
14.399999999999885 40.58127659358031
14.429999999999884 40.58392266070837
14.459999999999884 40.58665186912394
14.489999999999883 40.58947180363451
14.519999999999882 40.59237783758742
14.549999999999882 40.595354691103864
14.579999999999881 40.598379228598965
14.60999999999988 40.601424047962944
14.63999999999988 40.604461338438895
14.66999999999988 40.60746649320893
14.699999999999878 40.61042103785508
14.729999999999878 40.613314560237185
14.759999999999877 40.6161454651885
14.789999999999877 40.61892055051528
14.819999999999876 40.62165353798157
14.849999999999875 40.62436282787154
14.879999999999875 40.627068816737484
14.909999999999874 40.62979115837457
14.939999999999873 40.63254633000086
14.969999999999873 40.635345785976426
14.999999999999872 40.63819488312406
15.029999999999871 40.64109265291704
15.05999999999987 40.64403240078006
15.08999999999987 40.64700300007558
15.11999999999987 40.64999064539429
15.149999999999869 40.652980799849246
15.179999999999868 40.65596008248727
15.209999999999868 40.658917845379904
15.239999999999867 40.66184724937487
15.269999999999866 40.664745785376915
15.299999999999866 40.667615233248625
15.329999999999865 40.670461084883826
15.359999999999864 40.67329153136305
15.389999999999864 40.67611617110033
15.419999999999863 40.678944622527936
15.449999999999863 40.681785219477646
15.479999999999862 40.68464394668263
15.509999999999861 40.6875237482448
15.53999999999986 40.690424266878885
15.56999999999986 40.693342031049234
15.59999999999986 40.69627102074381
15.629999999999859 40.699203539212284
15.659999999999858 40.70213122878261
15.689999999999857 40.705046096591616
15.719999999999857 40.70794142635326
15.749999999999856 40.71081248487648
15.779999999999855 40.71365691657139
15.809999999999855 40.71647479152038
15.839999999999854 40.719268332001604
15.869999999999854 40.722041395185975
15.899999999999853 40.72479878441304
15.929999999999852 40.72754549295186
15.959999999999852 40.73028598512848
15.989999999999851 40.733023622122246
16.01999999999985 40.73576029396216
16.04999999999985 40.73849627422741
16.079999999999853 40.741230310156695
16.109999999999854 40.7439598913511
16.139999999999855 40.74668164422835
16.169999999999856 40.749391782558355
16.199999999999857 40.752086568277306
16.22999999999986 40.75476273343833
16.25999999999986 40.75741784269056
16.28999999999986 40.760050562521954
16.31999999999986 40.76266079345982
16.349999999999863 40.76524964650208
16.379999999999864 40.76781928328176
