# Results for "element" with Id # 2468073 for search config "initial" at position: x0: 125; y0: 0; z0: 129.310344828
# time VELOCITY_X
0.03 0.006896442367429615
0.06 0.028893521311046947
0.09 0.07315132402448407
0.12 0.1446620649845485
0.15 0.24572784280526547
0.18 0.37584050375750566
0.21 0.5318778272730025
0.24 0.708546097238801
0.27 0.8989924825786431
0.30000000000000004 1.0955073276785559
0.33000000000000007 1.290242350615432
0.3600000000000001 1.4758840922337355
0.3900000000000001 1.6462377016007712
0.42000000000000015 1.7966895962558116
0.4500000000000002 1.9245272369231414
0.4800000000000002 2.0291006712322153
0.5100000000000002 2.111816423403613
0.5400000000000003 2.1759626362929962
0.5700000000000003 2.2263764345814985
0.6000000000000003 2.268979760084575
0.6300000000000003 2.310225051808707
0.6600000000000004 2.3565032358209463
0.6900000000000004 2.4135712235800195
0.7200000000000004 2.4860522537238507
0.7500000000000004 2.577051797149188
0.7800000000000005 2.6879173301483332
0.8100000000000005 2.818155501762432
0.8400000000000005 2.96550755810448
0.8700000000000006 3.126174074552384
0.9000000000000006 3.2951718145747133
0.9300000000000006 3.4667974104864157
0.9600000000000006 3.6351637180929517
0.9900000000000007 3.794764255338005
1.0200000000000007 3.9410129563189096
1.0500000000000007 4.0707023770065955
1.0800000000000007 4.182326987361302
1.1100000000000008 4.27623040398656
1.1400000000000008 4.3545554284485934
1.1700000000000008 4.421000262881477
1.2000000000000008 4.480408852021215
1.2300000000000009 4.538243487537266
1.260000000000001 4.600000107627775
1.290000000000001 4.670631477948576
1.320000000000001 4.754039302559355
1.350000000000001 4.852686815533821
1.380000000000001 4.967369577673099
1.410000000000001 5.097165951352177
1.440000000000001 5.239571018175395
1.470000000000001 5.390799368282083
1.500000000000001 5.546224245601853
1.5300000000000011 5.700904626721477
1.5600000000000012 5.850140395671369
1.5900000000000012 5.989990626588956
1.6200000000000012 6.1176935393012295
1.6500000000000012 6.2319386862504125
1.6800000000000013 6.332961330578206
1.7100000000000013 6.422452657178711
1.7400000000000013 6.503303512359943
1.7700000000000014 6.5792199606975235
1.8000000000000014 6.654263143402525
1.8300000000000014 6.732372172413192
1.8600000000000014 6.816926945879614
1.8900000000000015 6.91039939577877
1.9200000000000015 7.0141280262946175
1.9500000000000015 7.12823438525061
1.9800000000000015 7.251682822365385
2.0100000000000016 7.382468506795817
2.0400000000000014 7.517904735495984
2.070000000000001 7.6549704230921325
2.100000000000001 7.790673398253595
2.130000000000001 7.922385485384264
2.1600000000000006 8.048111296389054
2.1900000000000004 8.16666330155162
2.22 8.277729537522053
2.25 8.381834909197389
2.28 8.480210461098117
2.3099999999999996 8.574595035997529
2.3399999999999994 8.666999494024601
2.369999999999999 8.759464706006062
2.399999999999999 8.853841478429498
2.429999999999999 8.951614392478515
2.4599999999999986 9.053783582691834
2.4899999999999984 9.160810108432399
2.5199999999999982 9.272622782212496
2.549999999999998 9.388678078065922
2.579999999999998 9.50806027871997
2.6099999999999977 9.629606789786402
2.6399999999999975 9.752043224639799
2.6699999999999973 9.874114241379303
2.699999999999997 9.994698685441163
2.729999999999997 10.112900763174204
2.7599999999999967 10.228112424937029
2.7899999999999965 10.340045149703444
2.8199999999999963 10.44873196924386
2.849999999999996 10.554502473280111
2.879999999999996 10.657935015449901
2.9099999999999957 10.759791250502516
2.9399999999999955 10.860938808201784
2.9699999999999953 10.962268333529156
2.999999999999995 11.064611357618931
3.029999999999995 11.16866550690971
3.0599999999999947 11.274933079443127
3.0899999999999945 11.383678377002092
3.1199999999999943 11.494907751894711
3.149999999999994 11.608374572804937
3.179999999999994 11.72360900346788
3.2099999999999937 11.839970056791236
3.2399999999999936 11.956714940858227
3.2699999999999934 12.073078655057204
3.299999999999993 12.188355399533945
3.329999999999993 12.30197285428286
3.3599999999999928 12.413551077048956
3.3899999999999926 12.52293927858143
3.4199999999999924 12.630226370532677
3.449999999999992 12.73572424034406
3.479999999999992 12.839926039553513
3.509999999999992 12.943444778593282
3.5399999999999916 13.046939832885231
3.5699999999999914 13.151040321031019
3.599999999999991 13.256274498774445
3.629999999999991 13.363013321584157
3.659999999999991 13.471434411956555
3.6899999999999906 13.58150997028228
3.7199999999999904 13.693019138290664
3.7499999999999902 13.805582385397509
3.77999999999999 13.918712884198223
3.80999999999999 14.031877990997877
3.8399999999999896 14.144563043201156
3.8699999999999894 14.256329748041052
3.8999999999999893 14.366862467553219
3.929999999999989 14.475997548526768
3.959999999999989 14.583733134058079
3.9899999999999887 14.69021944746142
4.019999999999989 14.795731899181721
4.049999999999989 14.900631265407405
4.079999999999989 15.005316492157638
4.10999999999999 15.110176170701532
4.13999999999999 15.215544464839637
4.16999999999999 15.321666334902087
4.19999999999999 15.428675445371717
4.229999999999991 15.536586434948722
4.259999999999991 15.64530137673184
4.289999999999991 15.754628686718874
4.319999999999991 15.864311353032143
4.349999999999992 15.974060573764445
4.379999999999992 16.083590536295272
4.409999999999992 16.192650277260633
4.439999999999992 16.30104921339248
4.469999999999993 16.408673921301318
4.499999999999993 16.515494940484967
4.529999999999993 16.621563600706608
4.559999999999993 16.727000017894454
4.589999999999994 16.831974293950104
4.619999999999994 16.936683560071867
4.649999999999994 17.041327752904667
4.679999999999994 17.14608692120738
4.709999999999995 17.25110246377429
4.739999999999995 17.35646406880221
4.769999999999995 17.462203346243964
4.799999999999995 17.568294347931
4.829999999999996 17.67466037985164
4.859999999999996 17.78118589370202
4.889999999999996 17.88773176987059
4.919999999999996 17.99415208284025
4.949999999999997 18.10031038357349
4.979999999999997 18.206093743429946
5.009999999999997 18.311423194437623
5.039999999999997 18.41625969841878
5.069999999999998 18.520605301881883
5.099999999999998 18.624499693879084
5.129999999999998 18.728012856035537
5.159999999999998 18.831234883197627
5.189999999999999 18.93426427710377
5.219999999999999 19.03719610291733
5.249999999999999 19.140111338287625
5.279999999999999 19.24306847915227
5.31 19.3460981668878
5.34 19.44920125175338
5.37 19.552350281176217
5.4 19.65549402595902
5.430000000000001 19.758564369695296
5.460000000000001 19.861484616704015
5.490000000000001 19.96417821662718
5.520000000000001 20.06657691664615
5.550000000000002 20.16862745884735
5.580000000000002 20.27029612953175
5.610000000000002 20.37157080304869
5.640000000000002 20.472460410221466
5.670000000000003 20.572992059196526
5.700000000000003 20.67320625017946
5.730000000000003 20.77315085749764
5.760000000000003 20.87287465160725
5.790000000000004 20.972421152774483
5.820000000000004 21.07182346475922
5.850000000000004 21.171100632832335
5.880000000000004 21.270255858601313
5.910000000000005 21.369276638254984
5.940000000000005 21.468136685653608
5.970000000000005 21.566799328165242
6.000000000000005 21.665221871450207
6.030000000000006 21.76336034711987
6.060000000000006 21.861174058658975
6.090000000000006 21.958629426601142
6.120000000000006 22.055702747617552
6.150000000000007 22.152381627964242
6.180000000000007 22.248665007899977
6.210000000000007 22.344561855928013
6.240000000000007 22.440088785258112
6.270000000000008 22.535266980708606
6.300000000000008 22.630118819431903
6.330000000000008 22.72466457960969
6.360000000000008 22.818919611052664
6.390000000000009 22.912892286150047
6.420000000000009 23.00658292052577
6.450000000000009 23.099983704390326
6.480000000000009 23.19307961480421
6.51000000000001 23.285850122374892
6.54000000000001 23.378271410848377
6.57000000000001 23.470318829688917
6.60000000000001 23.561969320738555
6.6300000000000106 23.653203517234427
6.660000000000011 23.744007258692957
6.690000000000011 23.834372430558354
6.720000000000011 23.92429707725002
6.7500000000000115 24.013784808728445
6.780000000000012 24.102843663310576
6.810000000000012 24.191484554414863
6.840000000000012 24.27971955490537
6.8700000000000125 24.367560254820265
6.900000000000013 24.45501635368686
6.930000000000013 24.54209469573784
6.960000000000013 24.62879879087887
6.9900000000000135 24.715128806950116
7.020000000000014 24.801082041582937
7.050000000000014 24.886653756408986
7.080000000000014 24.971838286058002
7.1100000000000145 25.056630284070962
7.140000000000015 25.141025939691488
7.170000000000015 25.225024070466176
7.200000000000015 25.30862696490627
7.2300000000000155 25.391840836816627
7.260000000000016 25.47467592659819
7.290000000000016 25.557146262549274
7.320000000000016 25.639269107236526
7.3500000000000165 25.721064133597068
7.380000000000017 25.80255244676551
7.410000000000017 25.883755583929815
7.440000000000017 25.96469461964463
7.4700000000000175 26.045389436420177
7.500000000000018 26.125858238911686
7.530000000000018 26.206117315445375
7.560000000000018 26.286181055408743
7.5900000000000185 26.366062161175282
7.620000000000019 26.44577197206364
7.650000000000019 26.525320802454477
7.680000000000019 26.60471822340427
7.7100000000000195 26.683973267850515
7.74000000000002 26.76309447869187
7.77000000000002 26.842089782725402
7.80000000000002 26.920966166167247
7.8300000000000205 26.99972918359027
7.860000000000021 27.07838233156411
7.890000000000021 27.15692633027032
7.920000000000021 27.23535836495952
7.9500000000000215 27.313671361635244
7.980000000000022 27.391853349565224
8.010000000000021 27.469886952589682
8.04000000000002 27.5477490266956
8.07000000000002 27.625410472067966
8.10000000000002 27.702836204409397
8.130000000000019 27.779985273900415
8.160000000000018 27.85681111848838
8.190000000000017 27.933261895018536
8.220000000000017 28.009280876786452
8.250000000000016 28.08480687436919
8.280000000000015 28.159774608524263
8.310000000000015 28.234115021846847
8.340000000000014 28.307755515243592
8.370000000000013 28.380620115261504
8.400000000000013 28.452629613188748
8.430000000000012 28.52370171630811
8.460000000000012 28.593751237514567
8.49000000000001 28.662690331169113
8.52000000000001 28.73042877630708
8.55000000000001 28.796874304993953
8.580000000000009 28.861933020531097
8.610000000000008 28.925509887936634
8.640000000000008 28.987509273694883
8.670000000000007 29.04783553828962
8.700000000000006 29.106393648413086
8.730000000000006 29.163089817602508
8.760000000000005 29.21783213749681
8.790000000000004 29.270531165969278
8.820000000000004 29.32110046288447
8.850000000000003 29.36945702174916
8.880000000000003 29.415521619132118
8.910000000000002 29.45921908646409
8.940000000000001 29.500478507238412
8.97 29.53923333703212
9.0 29.575421465700387
9.03 29.60898527840948
9.059999999999999 29.63987172755266
9.089999999999998 29.668032436147072
9.119999999999997 29.693423830823114
9.149999999999997 29.716007294063232
9.179999999999996 29.735749292875393
9.209999999999996 29.752621438909824
9.239999999999995 29.76660048944611
9.269999999999994 29.77766829040133
9.299999999999994 29.785811745307637
9.329999999999993 29.791022761906927
9.359999999999992 29.793298131804452
9.389999999999992 29.792639291695185
9.419999999999991 29.789052022388766
9.44999999999999 29.78254620221955
9.47999999999999 29.773135643627203
9.50999999999999 29.760837965032604
9.539999999999988 29.74567445391254
9.569999999999988 29.72766981551891
9.599999999999987 29.706851604286243
9.629999999999987 29.683249438654144
9.659999999999986 29.65689443108158
9.689999999999985 29.62781897578549
9.719999999999985 29.59605689023962
9.749999999999984 29.561643536096962
9.779999999999983 29.524615783881096
9.809999999999983 29.485012001020568
9.839999999999982 29.44287217407893
9.869999999999981 29.39823814849441
9.89999999999998 29.351153926819983
9.92999999999998 29.30166584429525
9.95999999999998 29.24982223119857
9.989999999999979 29.1956728555241
10.019999999999978 29.134075326247636
10.049999999999978 29.055821941221204
10.079999999999977 28.951363070005613
10.109999999999976 28.813142369519568
10.139999999999976 28.63741575119364
10.169999999999975 28.425420307639794
10.199999999999974 28.183586077490336
10.229999999999974 27.922674636752124
10.259999999999973 27.656017558471657
10.289999999999973 27.397258763662286
10.319999999999972 27.158097284331628
10.349999999999971 26.94648500737446
10.37999999999997 26.765589085408575
10.40999999999997 26.613640347292186
10.43999999999997 26.484605003922766
10.469999999999969 26.36947364311353
10.499999999999968 26.25788038535086
10.529999999999967 26.13974861072125
10.559999999999967 26.0066990291307
10.589999999999966 25.853037989563735
10.619999999999965 25.6762391671981
10.649999999999965 25.476924544770156
10.679999999999964 25.258421978835038
10.709999999999964 25.026020389533233
10.739999999999963 24.786060570518806
10.769999999999962 24.54499353884491
10.799999999999962 24.308519640272664
10.829999999999961 24.080898180827614
10.85999999999996 23.864487572447445
10.88999999999996 23.659548393007782
10.919999999999959 23.46431499367956
10.949999999999958 23.275314488438383
10.979999999999958 23.087885608460645
11.009999999999957 22.896827047485132
11.039999999999957 22.69708807185109
11.069999999999956 22.484407702599317
11.099999999999955 22.255816062062305
11.129999999999955 22.009933655474228
11.159999999999954 21.747035089739658
11.189999999999953 21.46888140972715
11.219999999999953 21.178361686936974
11.249999999999952 20.879008772315462
11.279999999999951 20.574465771955982
11.30999999999995 20.26798263254886
11.33999999999995 19.96201102539607
11.36999999999995 19.657945816051157
11.399999999999949 19.356036741644854
11.429999999999948 19.055466849419588
11.459999999999948 18.75457151769174
11.489999999999947 18.451156919818466
11.519999999999946 18.14286711202802
11.549999999999946 17.827541905297885
11.579999999999945 17.503513349297673
11.609999999999944 17.169816436459204
11.639999999999944 16.826294532292636
11.669999999999943 16.473594012776797
11.699999999999942 16.113051593793948
11.729999999999942 15.746500014320976
11.759999999999941 15.376030935701454
11.78999999999994 15.00375375332952
11.81999999999994 14.6315757894249
11.84999999999994 14.261027234602732
11.879999999999939 13.893149499516419
11.909999999999938 13.528455465716709
11.939999999999937 13.16695888014459
11.969999999999937 12.808263540333655
11.999999999999936 12.45169693962009
12.029999999999935 12.096468065220055
12.059999999999935 11.74182773969164
12.089999999999934 11.387210652346855
12.119999999999933 11.03234210395518
12.149999999999933 10.67729903771897
12.179999999999932 10.322522219829033
12.209999999999932 9.96878023721651
12.239999999999931 9.61709358839207
12.26999999999993 9.268634181717996
12.29999999999993 8.924611969784838
12.329999999999929 8.586162647437009
12.359999999999928 8.2542508395374
12.389999999999928 7.929597826741849
12.419999999999927 7.612644411946368
12.449999999999926 7.303552976085467
12.479999999999926 7.002236820855934
12.509999999999925 6.708416215269359
12.539999999999925 6.421692739259442
12.569999999999924 6.141629672546547
12.599999999999923 5.867827749161404
12.629999999999923 5.59998757187336
12.659999999999922 5.3379512985251
12.689999999999921 5.081720811130413
12.71999999999992 4.8314500406186465
12.74999999999992 4.587415133648354
12.77999999999992 4.349968379616691
12.809999999999919 4.119483377647426
12.839999999999918 3.8962984358921
12.869999999999918 3.6806649879458764
12.899999999999917 3.4727080767808323
12.929999999999916 3.2724028712692195
12.959999999999916 3.0795689658156027
12.989999999999915 2.893882958376382
13.019999999999914 2.7149066439703384
13.049999999999914 2.5421260287760603
13.079999999999913 2.374994657976108
13.109999999999912 2.2129758892396394
13.139999999999912 2.0555793395198245
13.169999999999911 1.902387296434958
13.19999999999991 1.7530688559350465
13.22999999999991 1.6073815655231645
13.25999999999991 1.4651615258745576
13.289999999999909 1.3263040289733181
13.319999999999908 1.190738582294978
13.349999999999907 1.05840232814783
13.379999999999907 0.9292152123676565
13.409999999999906 0.8030605749183334
13.439999999999905 0.6797736383675167
13.469999999999905 0.5591389693868773
13.499999999999904 0.44089689861911363
13.529999999999903 0.32475732403432644
13.559999999999903 0.21041817297534676
13.589999999999902 0.09758685637113307
13.619999999999902 -0.013998461741889068
13.6499999999999 -0.12455026028944649
13.6799999999999 -0.23421739429809274
13.7099999999999 -0.34307627202248453
13.739999999999899 -0.45112830181369523
13.769999999999898 -0.5583036572349656
13.799999999999898 -0.6644704274521562
13.829999999999897 -0.7694469686103786
13.859999999999896 -0.8730160229042672
13.889999999999896 -0.9749394239392294
13.919999999999895 -1.0749716968388603
13.949999999999894 -1.1728711994192644
13.979999999999894 -1.2684082447507612
14.009999999999893 -1.3613696414949361
14.039999999999893 -1.451559512938681
14.069999999999892 -1.5387971154022697
14.099999999999891 -1.6229129094957813
14.12999999999989 -1.703743926999218
14.15999999999989 -1.7811297336956204
14.18999999999989 -1.8549098543960014
14.219999999999889 -1.9249235389518804
14.249999999999888 -1.991012229678641
14.279999999999887 -2.053024664145359
14.309999999999887 -2.1108233083752728
14.339999999999886 -2.1642907323125606
14.369999999999886 -2.213335355946068
14.399999999999885 -2.2578960461648956
14.429999999999884 -2.297944873122466
14.459999999999884 -2.3334870435400883
14.489999999999883 -2.364557719752744
14.519999999999882 -2.391215688887094
14.549999999999882 -2.4135346523284693
14.579999999999881 -2.4315937565189794
14.60999999999988 -2.4454680130200552
14.63999999999988 -2.45521901290319
14.66999999999988 -2.460886418640031
14.699999999999878 -2.4624808522100015
14.729999999999878 -2.4599788923377663
14.759999999999877 -2.453320519995091
14.789999999999877 -2.442409737522521
14.819999999999876 -2.427118083249574
14.849999999999875 -2.407290581653337
14.879999999999875 -2.3827535117043253
14.909999999999874 -2.353322597688776
14.939999999999873 -2.3188108065484028
14.969999999999873 -2.2790350345415025
14.999999999999872 -2.233820635206968
15.029999999999871 -2.183003088467647
15.05999999999987 -2.12642689346751
15.08999999999987 -2.0639419527287046
15.11999999999987 -1.9953978696873067
15.149999999999869 -1.9206369532180478
15.179999999999868 -1.8394872952349643
15.209999999999868 -1.7517574924673802
15.239999999999867 -1.6572332693347729
15.269999999999866 -1.5556767368295874
15.299999999999866 -1.4468289254579758
15.329999999999865 -1.3304142996422224
15.359999999999864 -1.206147196719479
15.389999999999864 -1.0737404455994362
15.419999999999863 -0.9329167524086127
15.449999999999863 -0.7834233295620812
15.479999999999862 -0.6250495557090178
15.509999999999861 -0.45764662524418454
15.53999999999986 -0.2811474152667033
15.56999999999986 -0.09558497417658252
15.59999999999986 0.09889192958099491
15.629999999999859 0.3020068918209249
15.659999999999858 0.5133483120143062
15.689999999999857 0.7323663042796889
15.719999999999857 0.9583727155181913
15.749999999999856 1.1905431683683902
15.779999999999855 1.4279199816069663
15.809999999999855 1.6694148501895998
15.839999999999854 1.9138114535389779
15.869999999999854 2.1597683419635376
15.899999999999853 2.405822912201685
15.929999999999852 2.6503974527529204
15.959999999999852 2.8918086402441547
15.989999999999851 3.128281431046406
16.01999999999985 3.357967502671215
16.04999999999985 3.57896740700578
16.079999999999853 3.7893549544035467
16.109999999999854 3.9872035475533947
16.139999999999855 4.170614436868376
16.169999999999856 4.337746956638106
16.199999999999857 4.486851169826443
16.22999999999986 4.616302066942362
