# Results for "element" with Id # 2461682 for search config "initial" at position: x0: 125; y0: 0; z0: 168.103448276
# time VELOCITY_X
0.03 0.006929215055284298
0.06 0.029023261121227998
0.09 0.07346628459265776
0.12 0.14526582007854466
0.15 0.24673040615754815
0.18 0.3773498698393921
0.21 0.5339923798176704
0.24 0.7113482941187331
0.27 0.902544196695513
0.30000000000000004 1.099847104310626
0.33000000000000007 1.2953847856043668
0.3600000000000001 1.4818213548325165
0.3900000000000001 1.6529428814695863
0.42000000000000015 1.8041214014953502
0.4500000000000002 1.932635433870005
0.4800000000000002 2.0378316822391507
0.5100000000000002 2.1211186344387607
0.5400000000000003 2.1857911015477103
0.5700000000000003 2.2366968349723426
0.6000000000000003 2.279771340746276
0.6300000000000003 2.3214822737131
0.6600000000000004 2.368235821723811
0.6900000000000004 2.4258025275859385
0.7200000000000004 2.49881612490566
0.7500000000000004 2.5903885278976198
0.7800000000000005 2.7018695800034944
0.8100000000000005 2.832765118521631
0.8400000000000005 2.980813937749085
0.8700000000000006 3.142214085301535
0.9000000000000006 3.3119808240004005
0.9300000000000006 3.4844104899258688
0.9600000000000006 3.653616046979226
0.9900000000000007 3.814090010544396
1.0200000000000007 3.961242540578856
1.0500000000000007 4.0918584814759775
1.0800000000000007 4.204420428750297
1.1100000000000008 4.299256831163553
1.1400000000000008 4.3784937936254185
1.1700000000000008 4.4458135693549075
1.2000000000000008 4.506047080658186
1.2300000000000009 4.564648219879652
1.260000000000001 4.62711012949153
1.290000000000001 4.698388677322788
1.320000000000001 4.782394321799405
1.350000000000001 4.881604081400444
1.380000000000001 4.996831450635939
1.410000000000001 5.127175728206486
1.440000000000001 5.270154444897274
1.470000000000001 5.4220042012524985
1.500000000000001 5.578117500639861
1.5300000000000011 5.733567317160114
1.5600000000000012 5.883659987672074
1.5900000000000012 6.0244518207294275
1.6200000000000012 6.153168427456582
1.6500000000000012 6.268477574579078
1.6800000000000013 6.370585549424925
1.7100000000000013 6.461150434509287
1.7400000000000013 6.543029577538263
1.7700000000000014 6.619899094189282
1.8000000000000014 6.695797361976459
1.8300000000000014 6.774650863203368
1.8600000000000014 6.859838917779195
1.8900000000000015 6.953845607100213
1.9200000000000015 7.0580336153399745
1.9500000000000015 7.172558567716625
1.9800000000000015 7.296425284070008
2.0100000000000016 7.427671189313399
2.0400000000000014 7.563648379403384
2.070000000000001 7.701365864048929
2.100000000000001 7.837848424587275
2.130000000000001 7.970468800793457
2.1600000000000006 8.097215744668112
2.1900000000000004 8.21687074899609
2.22 8.329079659946673
2.25 8.434319630697107
2.28 8.533774919391293
2.3099999999999996 8.629144991617656
2.3399999999999994 8.722414124184784
2.369999999999999 8.81561296338985
2.399999999999999 8.910599679255787
2.429999999999999 9.00888257389548
2.4599999999999986 9.111498363044422
2.4899999999999984 9.218952326058726
2.5199999999999982 9.33121895026321
2.549999999999998 9.447795556866993
2.579999999999998 9.567796993147777
2.6099999999999977 9.69007707467818
2.6399999999999975 9.813361926571845
2.6699999999999973 9.936381415312256
2.699999999999997 10.057987060439679
2.729999999999997 10.177247676803633
2.7599999999999967 10.29351717941665
2.7899999999999965 10.406471867281294
2.8199999999999963 10.51611718572849
2.849999999999996 10.622766056255196
2.879999999999996 10.726992568262109
2.9099999999999957 10.829566091401901
2.9399999999999955 10.931371826776356
2.9699999999999953 11.033324492372847
2.999999999999995 11.136282229453403
3.029999999999995 11.24096787429819
3.0599999999999947 11.347904220388646
3.0899999999999945 11.457369087360734
3.1199999999999943 11.569374377735544
3.149999999999994 11.683671313060643
3.179999999999994 11.799781564515225
3.2099999999999937 11.91705138828211
3.2399999999999936 12.034723373271039
3.2699999999999934 12.152018346857362
3.299999999999993 12.268218653943137
3.329999999999993 12.382743652387516
3.3599999999999928 12.495209077605507
3.3899999999999926 12.605463593306201
3.4199999999999924 12.713598587142886
3.449999999999992 12.819930403458951
3.479999999999992 12.924957535348891
3.509999999999992 13.02929826838188
3.5399999999999916 13.133616527954759
3.5699999999999914 13.238544943766449
3.599999999999991 13.344614242107243
3.629999999999991 13.452197038357042
3.659999999999991 13.561472135298121
3.6899999999999906 13.672412750773294
3.7199999999999904 13.784799085406142
3.7499999999999902 13.898252737733015
3.77999999999999 14.012287935040373
3.80999999999999 14.126372749698561
3.8399999999999896 14.23999258253956
3.8699999999999894 14.35270828134874
3.8999999999999893 14.464202290880694
3.929999999999989 14.57430803386774
3.959999999999989 14.683019981937944
3.9899999999999887 14.79048437084237
4.019999999999989 14.896972844797187
4.049999999999989 15.002843196350657
4.079999999999989 15.10849265532256
4.10999999999999 15.214309687287347
4.13999999999999 15.320630025239797
4.16999999999999 15.427701756526925
4.19999999999999 15.535662870871793
4.229999999999991 15.644532992677036
4.259999999999991 15.754219215668437
4.289999999999991 15.864534373122384
4.319999999999991 15.975224721779181
4.349999999999992 16.086003192992187
4.379999999999992 16.196583998423993
4.409999999999992 16.306714546812838
4.439999999999992 16.416201247381597
4.469999999999993 16.524926736191535
4.499999999999993 16.632857232227167
4.529999999999993 16.740039950527432
4.559999999999993 16.846591632963786
4.589999999999994 16.952680171079788
4.619999999999994 17.058501911689106
4.649999999999994 17.164257506343002
4.679999999999994 17.270129103327708
4.709999999999995 17.376261303450118
4.739999999999995 17.482747691724107
4.769999999999995 17.58962399767472
4.799999999999995 17.696868138160124
4.829999999999996 17.80440661062527
4.859999999999996 17.91212607097896
4.889999999999996 18.01988843729608
4.919999999999996 18.127547622950097
4.949999999999997 18.23496594378361
4.979999999999997 18.342028422836325
5.009999999999997 18.44865357786299
5.039999999999997 18.55479977552158
5.069999999999998 18.66046676153556
5.099999999999998 18.765692539364323
5.129999999999998 18.87054624535546
5.159999999999998 18.975118077791507
5.189999999999999 19.079507578412915
5.219999999999999 19.18381166147098
5.249999999999999 19.288113737474212
5.279999999999999 19.39247503746342
5.31 19.49692894659352
5.34 19.601478793995764
5.37 19.706099116910593
5.4 19.81074003945985
5.430000000000001 19.915334101609474
5.460000000000001 20.019804606696017
5.490000000000001 20.124074464726732
5.520000000000001 20.22807452339002
5.550000000000002 20.331750480447212
5.580000000000002 20.435067661244084
5.610000000000002 20.538013262719364
5.640000000000002 20.640595967833736
5.670000000000003 20.742843143043594
5.700000000000003 20.844796069953063
5.730000000000003 20.946503886751437
5.760000000000003 21.048017007675995
5.790000000000004 21.14938083010078
5.820000000000004 21.250630416457543
5.850000000000004 21.351786706331747
5.880000000000004 21.452854604559434
5.910000000000005 21.553823033448076
5.940000000000005 21.65466681328207
5.970000000000005 21.755350048174385
6.000000000000005 21.855830519315138
6.030000000000006 21.956064500054147
6.060000000000006 22.056011394191348
6.090000000000006 22.155637680390537
6.120000000000006 22.254919756700502
6.150000000000007 22.353845435350458
6.180000000000007 22.452414004513546
6.210000000000007 22.55063493857715
6.240000000000007 22.648525508632115
6.270000000000008 22.746107670206783
6.300000000000008 22.843404620358214
6.330000000000008 22.94043744217909
6.360000000000008 23.037222223465495
6.390000000000009 23.13376796131169
6.420000000000009 23.2300754460629
6.450000000000009 23.326137166178263
6.480000000000009 23.42193819587398
6.51000000000001 23.517457889967723
6.54000000000001 23.612672122566742
6.57000000000001 23.70755577152378
6.60000000000001 23.802085160036132
6.6300000000000106 23.896240170888333
6.660000000000011 23.99000579625585
6.690000000000011 24.083373011917445
6.720000000000011 24.176338911546882
6.7500000000000115 24.26890613867179
6.780000000000012 24.36108175408926
6.810000000000012 24.452875692544414
6.840000000000012 24.544299048050384
6.8700000000000125 24.635362417659437
6.900000000000013 24.72607447861036
6.930000000000013 24.816440979166096
6.960000000000013 24.906464207760173
6.9900000000000135 24.99614295475473
7.020000000000014 25.085472973864405
7.050000000000014 25.17444783348424
7.080000000000014 25.26306005310652
7.1100000000000145 25.35130237975005
7.140000000000015 25.43916904093
7.170000000000015 25.526656859864048
7.200000000000015 25.613766115598658
7.2300000000000155 25.700501034207228
7.260000000000016 25.786869916247205
7.290000000000016 25.87288490825799
7.320000000000016 25.958561452143506
7.3500000000000165 26.04391748245802
7.380000000000017 26.12897248634026
7.410000000000017 26.21374654418814
7.440000000000017 26.29825947282423
7.4700000000000175 26.38253012811756
7.500000000000018 26.466575937510157
7.530000000000018 26.550412690506
7.560000000000018 26.634054584663232
7.5900000000000185 26.7175144713327
7.620000000000019 26.80080422649693
7.650000000000019 26.883935151057543
7.680000000000019 26.96691833166173
7.7100000000000195 27.049764913392252
7.74000000000002 27.132486205953228
7.77000000000002 27.21509360385182
7.80000000000002 27.29759830332349
7.8300000000000205 27.380010845073606
7.860000000000021 27.462340508659082
7.890000000000021 27.544594598371557
7.920000000000021 27.62677767445443
7.9500000000000215 27.70889081446881
7.980000000000022 27.79093095494671
8.010000000000021 27.87289035439815
8.04000000000002 27.954756211616154
8.07000000000002 28.036510461523
8.10000000000002 28.11812973369554
8.130000000000019 28.199585453824497
8.160000000000018 28.28084406925117
8.190000000000017 28.36186734543947
8.220000000000017 28.442612707175122
8.250000000000016 28.52303359492735
8.280000000000015 28.603079782424985
8.310000000000015 28.68269764292321
8.340000000000014 28.76183035401115
8.370000000000013 28.840418046409756
8.400000000000013 28.91839791910649
8.430000000000012 28.995704349007497
8.460000000000012 29.072269026293316
8.49000000000001 29.148021138031122
8.52000000000001 29.22288760739027
8.55000000000001 29.296793406837555
8.580000000000009 29.369661960856703
8.610000000000008 29.441415611237467
8.640000000000008 29.51197612520216
8.670000000000007 29.581265280306816
8.700000000000006 29.64920547939588
8.730000000000006 29.71572038026313
8.760000000000005 29.780735497612895
8.790000000000004 29.844178735665444
8.820000000000004 29.905980863290445
8.850000000000003 29.966075915522882
8.880000000000003 30.02440151814369
8.910000000000002 30.080899130552027
8.940000000000001 30.13551421073402
8.97 30.18819631140009
9.0 30.238899122339042
9.03 30.287580469100618
9.059999999999999 30.33420229362369
9.089999999999998 30.378730654514392
9.119999999999997 30.42113574539558
9.149999999999997 30.461391932141517
9.179999999999996 30.49947778550716
9.209999999999996 30.535376110748977
9.239999999999995 30.569073964016972
9.269999999999994 30.60056262646425
9.299999999999994 30.62983759810401
9.329999999999993 30.656898546451487
9.359999999999992 30.681749178546745
9.389999999999992 30.704397067045306
9.419999999999991 30.724853444587264
9.44999999999999 30.74313296917991
9.47999999999999 30.759253488558365
9.50999999999999 30.773235788651018
9.539999999999988 30.785103362660866
9.569999999999988 30.794882178507436
9.599999999999987 30.80260043095661
9.629999999999987 30.808288254511485
9.659999999999986 30.811977498435112
9.689999999999985 30.813701597862174
9.719999999999985 30.81349557598611
9.749999999999984 30.811396070042743
9.779999999999983 30.807441348728688
9.809999999999983 30.801671321924225
9.839999999999982 30.79412742617353
9.869999999999981 30.78485246905035
9.89999999999998 30.77389058464241
9.92999999999998 30.761287292003935
9.95999999999998 30.747089185442025
9.989999999999979 30.731343549040812
10.019999999999978 30.708963601748774
10.049999999999978 30.670787086265797
10.079999999999977 30.607209927489517
10.109999999999976 30.51050937771518
10.139999999999976 30.376712302027485
10.169999999999975 30.206839248963096
10.199999999999974 30.007179931194162
10.229999999999974 29.788462819783746
10.259999999999973 29.56408814248977
10.289999999999973 29.34783877323453
10.319999999999972 29.151584193825663
10.349999999999971 28.983447764369593
10.37999999999997 28.846754334077886
10.40999999999997 28.739878226266022
10.43999999999997 28.656921834877863
10.469999999999969 28.589011203904384
10.499999999999968 28.525915469018386
10.529999999999967 28.45768543396599
10.559999999999967 28.376050222677488
10.589999999999966 28.27539514331595
10.619999999999965 28.153239777939557
10.649999999999965 28.010226553400926
10.679999999999964 27.849698276695253
10.709999999999964 27.67698273871875
10.739999999999963 27.498515365415436
10.769999999999962 27.32092399449595
10.799999999999962 27.150181943297788
10.829999999999961 26.990913443149392
10.85999999999996 26.845911965825927
10.88999999999996 26.715909764746257
10.919999999999959 26.59961110497914
10.949999999999958 26.493975536784728
10.979999999999958 26.394709772406646
11.009999999999957 26.296901030935945
11.039999999999957 26.195705312813118
11.069999999999956 26.08699576626046
11.099999999999955 25.96788201961253
11.129999999999955 25.83703166435525
11.159999999999954 25.694756129585926
11.189999999999953 25.542861557483654
11.219999999999953 25.38430069567116
11.249999999999952 25.222690220333092
11.279999999999951 25.06177335671841
11.30999999999995 24.904909392604367
11.33999999999995 24.75466033449159
11.36999999999995 24.612524020567967
11.399999999999949 24.478837723255552
11.429999999999948 24.352849914103203
11.459999999999948 24.23293429599943
11.489999999999947 24.116903353163764
11.519999999999946 24.002369083021655
11.549999999999946 23.88709753863565
11.579999999999945 23.769309885848728
11.609999999999944 23.647894788150694
11.639999999999944 23.52251310444351
11.669999999999943 23.393591328599015
11.699999999999942 23.26221553676744
11.729999999999942 23.12994949596078
11.759999999999941 22.998607695005425
11.78999999999994 22.87001606616099
11.81999999999994 22.74579135616343
11.84999999999994 22.62716467463927
11.879999999999939 22.514866784446582
11.909999999999938 22.40908348928794
11.939999999999937 22.30948061856928
11.969999999999937 22.21528965955399
11.999999999999936 22.125438598587063
12.029999999999935 22.0387083230852
12.059999999999935 21.953893285211873
12.089999999999934 21.86994592614404
12.119999999999933 21.786087903189948
12.149999999999933 21.701876405035406
12.179999999999932 21.617220763690142
12.209999999999932 21.532351141285442
12.239999999999931 21.44774765077242
12.26999999999993 21.36404222773602
12.29999999999993 21.28190802550339
12.329999999999929 21.201952018695952
12.359999999999928 21.124624645918246
12.389999999999928 21.05015691762255
12.419999999999927 20.978530912307402
12.449999999999926 20.909484575928676
12.479999999999926 20.842548840496953
12.509999999999925 20.777109571439087
12.539999999999925 20.712484782453394
12.569999999999924 20.648006452918153
12.599999999999923 20.583096258414933
12.629999999999923 20.517326168107086
12.659999999999922 20.450456983828012
12.689999999999921 20.382452175708412
12.71999999999992 20.313467098858148
12.74999999999992 20.243816886623495
12.77999999999992 20.173928884713472
12.809999999999919 20.104287504795717
12.839999999999918 20.03537891112213
12.869999999999918 19.96764241185245
12.899999999999917 19.901434405225395
12.929999999999916 19.837008402295513
12.959999999999916 19.77451230958372
12.989999999999915 19.71400199838164
13.019999999999914 19.655467691979567
13.049999999999914 19.598868466724998
13.079999999999913 19.54416950793106
13.109999999999912 19.49137675393492
13.139999999999912 19.440564521969037
13.169999999999911 19.391893075347628
13.19999999999991 19.345614722573735
13.22999999999991 19.302068615849162
13.25999999999991 19.26166528026833
13.289999999999909 19.224863346991356
13.319999999999908 19.192141536642296
13.349999999999907 19.16396892989145
13.379999999999907 19.14077680643139
13.409999999999906 19.12293525777931
13.439999999999905 19.110736743526477
13.469999999999905 19.10438804437539
13.499999999999904 19.10401055987294
13.529999999999903 19.109647755258674
13.559999999999903 19.121277546289335
13.589999999999902 19.138827455601724
13.619999999999902 19.162189883449738
13.6499999999999 19.191235960744034
13.6799999999999 19.225826216712555
13.7099999999999 19.265816823452674
13.739999999999899 19.311061018065466
13.769999999999898 19.361406141353434
13.799999999999898 19.416686766129914
13.829999999999897 19.47671596404383
13.859999999999896 19.54127528216666
13.889999999999896 19.61010482285056
13.919999999999895 19.682895452470397
13.949999999999894 19.75928431249701
13.979999999999894 19.838854209497576
14.009999999999893 19.92113762685885
14.039999999999893 20.005625407140286
14.069999999999892 20.09177929852997
14.099999999999891 20.179046698300866
14.12999999999989 20.26687641951527
14.15999999999989 20.354733831018322
14.18999999999989 20.442114941420726
14.219999999999889 20.528558143878524
14.249999999999888 20.61365259739945
14.279999999999887 20.69704317863167
14.309999999999887 20.778433375507163
14.339999999999886 20.857587172553504
14.369999999999886 20.93433018857406
14.399999999999885 21.00855081880424
14.429999999999884 21.080202088787033
14.459999999999884 21.14930463693919
14.489999999999883 21.215950872207515
14.519999999999882 21.28030990296752
14.549999999999882 21.34263198201427
14.579999999999881 21.403250438653263
14.60999999999988 21.46257971465891
14.63999999999988 21.521109123391795
14.66999999999988 21.579392870485286
14.699999999999878 21.63803702807479
14.729999999999878 21.697683964687897
14.759999999999877 21.75899493833412
14.789999999999877 21.822631327873513
14.819999999999876 21.889234904020597
14.849999999999875 21.959407961495067
14.879999999999875 22.03369460854751
14.909999999999874 22.112564459372425
14.939999999999873 22.19639888019331
14.969999999999873 22.28548011486624
14.999999999999872 22.379984620100043
15.029999999999871 22.47998090657851
15.05999999999987 22.585430777179738
15.08999999999987 22.696193949793475
15.11999999999987 22.81203452319781
15.149999999999869 22.932627909121667
15.179999999999868 23.057567194686904
15.209999999999868 23.1863687114993
15.239999999999867 23.31847797126227
15.269999999999866 23.453276861501216
15.299999999999866 23.59009180869133
15.329999999999865 23.728203361916826
15.359999999999864 23.8668566338313
15.389999999999864 24.005271882078386
15.419999999999863 24.14265511463625
15.449999999999863 24.278208651254808
15.479999999999862 24.41114208120989
15.509999999999861 24.54068421010601
15.53999999999986 24.66609588833864
15.56999999999986 24.786682694043414
15.59999999999986 24.901807650730348
15.629999999999859 25.010902205529703
15.659999999999858 25.113474431534243
15.689999999999857 25.2091147442776
15.719999999999857 25.297499231136364
15.749999999999856 25.378392086686762
15.779999999999855 25.451647963153846
15.809999999999855 25.517215194014824
15.839999999999854 25.57514218071492
15.869999999999854 25.625588313022153
15.899999999999853 25.668839708284523
15.929999999999852 25.705327368332345
15.959999999999852 25.7356457575258
15.989999999999851 25.760568708243333
16.01999999999985 25.781058409874078
16.04999999999985 25.798263286353993
16.079999999999853 25.813501873427725
16.109999999999854 25.82823192477015
16.139999999999855 25.844005838360452
16.169999999999856 25.862415607702253
16.199999999999857 25.88503022114564
16.22999999999986 25.913330079361067
16.25999999999986 25.948642790840523
16.28999999999986 25.99208604500552
