# Results for "element" with Id # 2758820 for search config "initial" at position: x0: 125; y0: 0; z0: 375
# time VELOCITY_X
0.03 0.007365070782121589
0.06 0.030868561090609616
0.09 0.07820789979013879
0.12 0.15482228506466345
0.15 0.2633217439376497
0.18 0.40330792909009733
0.21 0.5715074952233946
0.24 0.7621714886241735
0.27 0.9676919196554657
0.30000000000000004 1.1793742784111418
0.33000000000000007 1.3882919128764977
0.3600000000000001 1.5861397778641806
0.3900000000000001 1.7660042132837748
0.42000000000000015 1.9229737720533824
0.4500000000000002 2.0545333538173156
0.4800000000000002 2.1607081779938015
0.5100000000000002 2.24395209885071
0.5400000000000003 2.3088024574590373
0.5700000000000003 2.361347357610311
0.6000000000000003 2.408568024404465
0.6300000000000003 2.457627534167268
0.6600000000000004 2.5151774749945606
0.6900000000000004 2.5867474089174993
0.7200000000000004 2.676269840333276
0.7500000000000004 2.785777906356027
0.7800000000000005 2.915295671767823
0.8100000000000005 3.062923084282841
0.8400000000000005 3.225100379058615
0.8700000000000006 3.3970209955238406
0.9000000000000006 3.5731490914421733
0.9300000000000006 3.7477885464919583
0.9600000000000006 3.9156462561161955
0.9900000000000007 4.0723340422444885
1.0200000000000007 4.214760982719731
1.0500000000000007 4.341380530312263
1.0800000000000007 4.452273052420766
1.1100000000000008 4.5490623822724645
1.1400000000000008 4.634682378990426
1.1700000000000008 4.7130243088813115
1.2000000000000008 4.788506436098644
1.2300000000000009 4.865612791667165
1.260000000000001 4.948448352136959
1.290000000000001 5.040353492343194
1.320000000000001 5.143612264125345
1.350000000000001 5.259278138185433
1.380000000000001 5.387128450776044
1.410000000000001 5.525746071872748
1.440000000000001 5.672714822379799
1.470000000000001 5.8249048357798126
1.500000000000001 5.978816262567675
1.5300000000000011 6.130945025102457
1.5600000000000012 6.27813332468405
1.5900000000000012 6.417870242643354
1.6200000000000012 6.548514022971478
1.6500000000000012 6.669416632583588
1.6800000000000013 6.780942053999085
1.7100000000000013 6.884381155842607
1.7400000000000013 6.981776622755934
1.7700000000000014 7.075680123054753
1.8000000000000014 7.168869743831469
1.8300000000000014 7.264058335875136
1.8600000000000014 7.363622676176034
1.8900000000000015 7.46937967298227
1.9200000000000015 7.582429768610332
1.9500000000000015 7.703080020144112
1.9800000000000015 7.830850868889604
2.0100000000000016 7.964562173207292
2.0400000000000014 8.102486407251039
2.070000000000001 8.242550693953064
2.100000000000001 8.382565116595647
2.130000000000001 8.520452872071584
2.1600000000000006 8.654458507788116
2.1900000000000004 8.783313604760913
2.22 8.906344476868536
2.25 9.023513171119156
2.28 9.135390449452894
2.3099999999999996 9.24306670522147
2.3399999999999994 9.348013057330927
2.369999999999999 9.45190955335873
2.399999999999999 9.556460035039052
2.429999999999999 9.663213647483353
2.4599999999999986 9.77341127354735
2.4899999999999984 9.887871664663043
2.5199999999999982 10.00692720056471
2.549999999999998 10.130413583711794
2.579999999999998 10.257711989917977
2.6099999999999977 10.38783680271845
2.6399999999999975 10.519557612159431
2.6699999999999973 10.651541052920908
2.699999999999997 10.78249658022795
2.729999999999997 10.911310552437333
2.7599999999999967 11.03715491249159
2.7899999999999965 11.159560096838625
2.8199999999999963 11.278446123158933
2.849999999999996 11.39411060874632
2.879999999999996 11.507177174509861
2.9099999999999957 11.61851179735006
2.9399999999999955 11.729117731827197
2.9699999999999953 11.840021368756027
2.999999999999995 11.952161711521413
3.029999999999995 12.066295082791138
3.0599999999999947 12.182924422021705
3.0899999999999945 12.302259420263862
3.1199999999999943 12.424210115337083
3.149999999999994 12.548412869141188
3.179999999999994 12.674284251972889
3.2099999999999937 12.80109559708909
3.2399999999999936 12.928059142246324
3.2699999999999934 13.05441588518018
3.299999999999993 13.17951559264942
3.329999999999993 13.302880735845804
3.3599999999999928 13.424248296252365
3.3899999999999926 13.543586095826722
3.4199999999999924 13.66108326417691
3.449999999999992 13.777117291229516
3.479999999999992 13.892202531264358
3.509999999999992 14.006926776225843
3.5399999999999916 14.1218834504392
3.5699999999999914 14.237607031129478
3.599999999999991 14.354518522034944
3.629999999999991 14.472886336865697
3.659999999999991 14.592805972407119
3.6899999999999906 14.714199632182236
3.7199999999999904 14.836834722814789
3.7499999999999902 14.960358155894689
3.77999999999999 15.084341833210182
3.80999999999999 15.208333725164964
3.8399999999999896 15.331908641423608
3.8699999999999894 15.454713149012672
3.8999999999999893 15.576500039345554
3.929999999999989 15.697149147028476
3.959999999999989 15.816673008264388
3.9899999999999887 15.935207600110045
4.019999999999989 16.05299004228391
4.049999999999989 16.170326476011315
4.079999999999989 16.287554236668772
4.10999999999999 16.405002831512984
4.13999999999999 16.5229581043087
4.16999999999999 16.641633360913236
4.19999999999999 16.761150240139912
4.229999999999991 16.881530869303475
4.259999999999991 17.00270150888411
4.289999999999991 17.12450659998719
4.319999999999991 17.24673103759046
4.349999999999992 17.369127705344976
4.379999999999992 17.491446893438187
4.409999999999992 17.61346420911122
4.439999999999992 17.735003956907647
4.469999999999993 17.855955651352296
4.499999999999993 17.976282232052057
4.529999999999993 18.096019571096654
4.559999999999993 18.21526786020825
4.589999999999994 18.334176345577433
4.619999999999994 18.45292353545987
4.649999999999994 18.57169538289892
4.679999999999994 18.690664018995044
4.709999999999995 18.80996938941507
4.739999999999995 18.929705673475887
4.769999999999995 19.049913708859595
4.799999999999995 19.17057989095552
4.829999999999996 19.29164125914528
4.859999999999996 19.412995801785122
4.889999999999996 19.534516484973878
4.919999999999996 19.65606718426091
4.949999999999997 19.777518601245085
4.979999999999997 19.898762370017398
5.009999999999997 20.019721877653346
5.039999999999997 20.140358790528985
5.069999999999998 20.26067482863253
5.099999999999998 20.380708900982135
5.129999999999998 20.500530229880113
5.159999999999998 20.620228507914018
5.189999999999999 20.739902398261982
5.219999999999999 20.859647790548436
5.249999999999999 20.979547158276628
5.279999999999999 21.09966115052104
5.31 21.22002322164721
5.34 21.340637704460267
5.37 21.461481313624205
5.4 21.582507680193892
5.430000000000001 21.703654197345585
5.460000000000001 21.824850245798913
5.490000000000001 21.94602577038218
5.520000000000001 22.06711920893532
5.550000000000002 22.188083915592326
5.580000000000002 22.30889244873141
5.610000000000002 22.42953837968618
5.640000000000002 22.55003558368035
5.670000000000003 22.6704152650754
5.700000000000003 22.7907212106956
5.730000000000003 22.911003934132044
5.760000000000003 23.031314453925802
5.790000000000004 23.151698442039898
5.820000000000004 23.272191386458992
5.850000000000004 23.392815252448642
5.880000000000004 23.51357692181376
5.910000000000005 23.634468467794598
5.940000000000005 23.75546910720035
5.970000000000005 23.87654849225036
6.000000000000005 23.99767087120359
6.030000000000006 24.118799581122538
6.060000000000006 24.23990133358575
6.090000000000006 24.36094981444959
6.120000000000006 24.481928230059633
6.150000000000007 24.60283057969927
6.180000000000007 24.723661595601367
6.210000000000007 24.844435449456302
6.240000000000007 24.965173460049037
6.270000000000008 25.085901135949086
6.300000000000008 25.206644941553186
6.330000000000008 25.327429179560713
6.360000000000008 25.44827334281611
6.390000000000009 25.56919020923265
6.420000000000009 25.690184848709677
6.450000000000009 25.81125459351175
6.480000000000009 25.9323899075329
6.51000000000001 26.053575989175727
6.54000000000001 26.174794874396156
6.57000000000001 26.296027757414375
6.60000000000001 26.417257243185794
6.6300000000000106 26.538469276305985
6.660000000000011 26.65965454352444
6.690000000000011 26.780809225060207
6.720000000000011 26.90193505152412
6.7500000000000115 27.02303871006259
6.780000000000012 27.144130714149775
6.810000000000012 27.26522390765713
6.840000000000012 27.386331802603916
6.8700000000000125 27.507466957418476
6.900000000000013 27.628639582410802
6.930000000000013 27.749856517407196
6.960000000000013 27.871120676295458
6.9900000000000135 27.992430990851137
7.020000000000014 28.113782824955333
7.050000000000014 28.235168777384715
7.080000000000014 28.35657975030791
7.1100000000000145 28.4780061402594
7.140000000000015 28.599439002114906
7.170000000000015 28.720871051003115
7.200000000000015 28.842297397090366
7.2300000000000155 28.96371594488483
7.260000000000016 29.08512743457315
7.290000000000016 29.20653514543902
7.320000000000016 29.327944320347513
7.3500000000000165 29.44936139923095
7.380000000000017 29.57079316559784
7.410000000000017 29.692245912011074
7.440000000000017 29.81372472332639
7.4700000000000175 29.935232952672557
7.500000000000018 30.056771938977423
7.530000000000018 30.178340981948853
7.560000000000018 30.299937559193754
7.5900000000000185 30.421557743028693
7.620000000000019 30.543196754298528
7.650000000000019 30.664849576980934
7.680000000000019 30.78651155662374
7.7100000000000195 30.908178912654748
7.74000000000002 31.02984910842274
7.77000000000002 31.151521046943387
7.80000000000002 31.273195079271925
7.8300000000000205 31.394872838725085
7.860000000000021 31.516556933245113
7.890000000000021 31.63825054299997
7.920000000000021 31.759956976998787
7.9500000000000215 31.881679246929107
7.980000000000022 32.00341970527205
8.010000000000021 32.12517978758707
8.04000000000002 32.246959882588186
8.07000000000002 32.3687593366402
8.10000000000002 32.49057658210953
8.130000000000019 32.61240936543061
8.160000000000018 32.73425504134548
8.190000000000017 32.856110893421715
8.220000000000017 32.97797443945496
8.250000000000016 33.0998436871175
8.280000000000015 33.221717310891215
8.310000000000015 33.343594737253845
8.340000000000014 33.46547613358917
8.370000000000013 33.58736230872843
8.400000000000013 33.709254542833975
8.430000000000012 33.83115437124487
8.460000000000012 33.953063353579765
8.49000000000001 34.074982854836065
8.52000000000001 34.196913868196994
8.55000000000001 34.318856894197026
8.580000000000009 34.440811887871696
8.610000000000008 34.56277827754103
8.640000000000008 34.68475504984121
8.670000000000007 34.806740880218705
8.700000000000006 34.92873429317345
8.730000000000006 35.05073383048984
8.760000000000005 35.17273820751644
8.790000000000004 35.29474643869371
8.820000000000004 35.416757919305915
8.850000000000003 35.538772455593715
8.880000000000003 35.66079024344035
8.910000000000002 35.78281180208725
8.940000000000001 35.904837873788196
8.97 36.02686930398526
9.0 36.14890692037596
9.03 36.270951424376314
9.059999999999999 36.393003309449135
9.089999999999998 36.51506281307826
9.119999999999997 36.63712990535814
9.149999999999997 36.75920431289371
9.179999999999996 36.88128557421991
9.209999999999996 37.00337311577353
9.239999999999995 37.1254663398026
9.269999999999994 37.24756470902766
9.299999999999994 37.36966782184439
9.329999999999993 37.491775467173426
9.359999999999992 37.61388765724274
9.389999999999992 37.73600463220379
9.419999999999991 37.85812684011387
9.44999999999999 37.98025489732726
9.47999999999999 38.10238953350772
9.50999999999999 38.224531526780574
9.539999999999988 38.346681632055706
9.569999999999988 38.46884051572071
9.599999999999987 38.591008711514455
9.629999999999987 38.71318660381168
9.659999999999986 38.83537443339278
9.689999999999985 38.95757232142802
9.719999999999985 39.07978030297741
9.749999999999984 39.20199837091465
9.779999999999983 39.324226523473875
9.809999999999983 39.446464801620024
9.839999999999982 39.56871332712754
9.869999999999981 39.69097232505064
9.89999999999998 39.813242110760974
9.92999999999998 39.93552303373129
9.95999999999998 40.05781545194135
9.989999999999979 40.180119720350135
10.019999999999978 40.29506143648647
10.049999999999978 40.39071496005734
10.079999999999977 40.45667960797135
10.109999999999976 40.4867330987425
10.139999999999976 40.479811557997394
10.169999999999975 40.43991355962467
10.199999999999974 40.37522090598878
10.229999999999974 40.29668408963455
10.259999999999973 40.21633069244601
10.289999999999973 40.145555601970486
10.319999999999972 40.09362640827023
10.349999999999971 40.066587023778965
10.37999999999997 40.066674889024
10.40999999999997 40.09229137537849
10.43999999999997 40.13849048148201
10.469999999999969 40.19788564836341
10.499999999999968 40.26182541909688
10.529999999999967 40.321661103932634
10.559999999999967 40.369926890090234
10.589999999999966 40.40127521638682
10.619999999999965 40.41305386842417
10.649999999999965 40.40546937857026
10.679999999999964 40.381344081636804
10.709999999999964 40.34553159284708
10.739999999999963 40.304098844797096
10.769999999999962 40.26340675133729
10.799999999999962 40.22922429233749
10.829999999999961 40.20599437728554
10.85999999999996 40.19633849915168
10.88999999999996 40.20084737995136
10.919999999999959 40.21816219052944
10.949999999999958 40.24531172894813
10.979999999999958 40.27823955949919
11.009999999999957 40.31243501877407
11.039999999999957 40.3435748677141
11.069999999999956 40.36808825181254
11.099999999999955 40.383574848054664
11.129999999999955 40.38903171203329
11.159999999999954 40.38487386780578
11.189999999999953 40.37276309942237
11.219999999999953 40.355284194290405
11.249999999999952 40.33552511080385
11.279999999999951 40.31662549923762
11.30999999999995 40.3013564465886
11.33999999999995 40.29178450973666
11.36999999999995 40.289057206117576
11.399999999999949 40.29332776649266
11.429999999999948 40.3038172105238
11.459999999999948 40.31899392284454
11.489999999999947 40.33683724264162
11.519999999999946 40.35514339803221
11.549999999999946 40.37183002415718
11.579999999999945 40.38519932450242
11.609999999999944 40.39412870724543
11.639999999999944 40.39816991354192
11.669999999999943 40.397551381785
11.699999999999942 40.39309177649522
11.729999999999942 40.38604369280137
11.759999999999941 40.37789405778909
11.78999999999994 40.37015105405906
11.81999999999994 40.364146495847784
11.84999999999994 40.360877983668175
11.879999999999939 40.36090783602999
11.909999999999938 40.36432695441984
11.939999999999937 40.37078264479225
11.969999999999937 40.37956133269596
11.999999999999936 40.389710820836825
12.029999999999935 40.40018295986101
12.059999999999935 40.40997662218754
12.089999999999934 40.41826257065685
12.119999999999933 40.42447570125929
12.149999999999933 40.428365566307406
12.179999999999932 40.4300022167309
12.209999999999932 40.429740427352115
12.239999999999931 40.42815041493252
12.26999999999993 40.42592678162766
12.29999999999993 40.423789200237344
12.329999999999929 40.42238826829489
12.359999999999928 40.42222809925178
12.389999999999928 40.42361409283763
12.419999999999927 40.42663039940089
12.449999999999926 40.43114743322233
12.479999999999926 40.43685596656845
12.509999999999925 40.443321260312054
12.539999999999925 40.45004867284268
12.569999999999924 40.456551467893576
12.599999999999923 40.462412020010206
12.629999999999923 40.467329182031946
12.659999999999922 40.47114693045356
12.689999999999921 40.47386219363841
12.71999999999992 40.475612593941996
12.74999999999992 40.476647321260586
12.77999999999992 40.477286223310784
12.809999999999919 40.47787329598642
12.839999999999918 40.47873093652935
12.869999999999918 40.48012070679523
12.899999999999917 40.48221503098954
12.929999999999916 40.48508250265759
12.959999999999916 40.488687548588075
12.989999999999915 40.49290331395614
13.019999999999914 40.4975350619353
13.049999999999914 40.50235027275138
13.079999999999913 40.50711108180383
13.109999999999912 40.511604764384245
13.139999999999912 40.51566857861651
13.169999999999911 40.51920628053306
13.19999999999991 40.522194892206144
13.22999999999991 40.52468165911352
13.25999999999991 40.526772375623736
13.289999999999909 40.52861324886267
13.319999999999908 40.53036912383798
13.349999999999907 40.532201114670656
13.379999999999907 40.53424652205604
13.409999999999906 40.5366033811861
13.439999999999905 40.53932121092688
13.469999999999905 40.54239862335207
13.499999999999904 40.545787553479585
13.529999999999903 40.549403046703354
13.559999999999903 40.553136942143716
13.589999999999902 40.55687342083281
13.619999999999902 40.56050429959063
13.6499999999999 40.56394215910171
13.6799999999999 40.567129807730154
13.7099999999999 40.570045170295046
13.739999999999899 40.57270135357298
13.769999999999898 40.575142251597754
13.799999999999898 40.577434609693825
13.829999999999897 40.57965780670048
13.859999999999896 40.58189283172877
13.889999999999896 40.584211929440464
13.919999999999895 40.58667016920483
13.949999999999894 40.58929985387529
13.979999999999894 40.59210825588456
14.009999999999893 40.595078707027945
14.039999999999893 40.59817462764859
14.069999999999892 40.601345751609394
14.099999999999891 40.604535598548274
14.12999999999989 40.60768914339268
14.15999999999989 40.61075969505758
14.18999999999989 40.61371420093962
14.219999999999889 40.61653642154242
14.249999999999888 40.61922772265488
14.279999999999887 40.62180558475502
14.309999999999887 40.6243001843672
14.339999999999886 40.626749614856394
14.369999999999886 40.629194475855066
14.399999999999885 40.63167256727526
14.429999999999884 40.634214352400164
14.459999999999884 40.636839701923655
14.489999999999883 40.63955622993476
14.519999999999882 40.64235930333113
14.549999999999882 40.645233599146266
14.579999999999881 40.64815590541961
14.60999999999988 40.65109871661579
14.63999999999988 40.6540341002254
14.66999999999988 40.65693731985074
14.699999999999878 40.65978977421543
14.729999999999878 40.66258093546954
14.759999999999877 40.66530911096902
14.789999999999877 40.66798102346029
14.819999999999876 40.67061034544942
14.849999999999875 40.67321545541735
14.879999999999875 40.675816755831256
14.909999999999874 40.678433930857274
14.939999999999873 40.681083504398494
14.969999999999873 40.68377698356954
14.999999999999872 40.68651977379192
15.029999999999871 40.68931094284143
15.05999999999987 40.692143812912946
15.08999999999987 40.695007247026005
15.11999999999987 40.69788740026846
15.149999999999869 40.70076967297982
15.179999999999868 40.70364061009484
15.209999999999868 40.706489497872006
15.239999999999867 40.70930946518462
15.269999999999866 40.71209802100923
15.299999999999866 40.71485701525596
15.329999999999865 40.71759205436541
15.359999999999864 40.720311476392695
15.389999999999864 40.72302504631998
15.419999999999863 40.72574255711011
15.449999999999863 40.728472518520576
15.479999999999862 40.73122109245243
15.509999999999861 40.73399140321547
15.53999999999986 40.73678328010725
15.56999999999986 40.73959344636951
15.59999999999986 40.742416085198386
15.629999999999859 40.74524370291084
15.659999999999858 40.74806813599884
15.689999999999857 40.75088156719666
15.719999999999857 40.753677427886544
15.749999999999856 40.75645109337269
15.779999999999855 40.75920027515575
15.809999999999855 40.761925078807124
15.839999999999854 40.76462774825514
15.869999999999854 40.767312164966384
15.899999999999853 40.76998317282166
15.929999999999852 40.77264583032957
15.959999999999852 40.77530469188819
15.989999999999851 40.77796322121298
16.01999999999985 40.780623403122185
16.04999999999985 40.78328557939
16.079999999999853 40.785948522799934
16.109999999999854 40.7886097009351
16.139999999999855 40.79126567774691
16.169999999999856 40.79391258217912
16.199999999999857 40.79654658995973
16.22999999999986 40.79916436228878
16.25999999999986 40.80176341310914
16.28999999999986 40.80434237048774
16.31999999999986 40.80690109584019
16.349999999999863 40.80944064799607
16.379999999999864 40.81196311251471
