# Results for "element" with Id # 2690831 for search config "initial" at position: x0: 125; y0: 0; z0: 25.8620689655
# time VELOCITY_X
0.03 0.006869459730148965
0.06 0.028838632754244743
0.09 0.07311552090819307
0.12 0.1447491607310706
0.15 0.24609996247692928
0.18 0.3767140512357
0.21 0.5335144881262244
0.24 0.7112386956072384
0.27 0.9030452698174166
0.30000000000000004 1.1012108714885773
0.33000000000000007 1.2978443652111662
0.3600000000000001 1.485559182496167
0.3900000000000001 1.6580604516390995
0.42000000000000015 1.81061588595808
0.4500000000000002 1.9403879384667175
0.4800000000000002 2.0466100519665105
0.5100000000000002 2.1305950726676977
0.5400000000000003 2.1955722521923198
0.5700000000000003 2.2463618210420067
0.6000000000000003 2.2889127148819934
0.6300000000000003 2.3297448889836394
0.6600000000000004 2.3753498577245065
0.6900000000000004 2.4316076970992517
0.7200000000000004 2.5032751931089816
0.7500000000000004 2.5935886877030994
0.7800000000000005 2.704010607475909
0.8100000000000005 2.834133961185018
0.8400000000000005 2.9817467486619504
0.8700000000000006 3.1430489276292635
0.9000000000000006 3.3130062449185913
0.9300000000000006 3.485817082067854
0.9600000000000006 3.6554584568849453
0.9900000000000007 3.81626611267959
1.0200000000000007 3.963493883636457
1.0500000000000007 4.0937926246570955
1.0800000000000007 4.20555221358611
1.1100000000000008 4.299062668513227
1.1400000000000008 4.376471331914383
1.1700000000000008 4.4415386333502465
1.2000000000000008 4.49922087028356
1.2300000000000009 4.555129273772513
1.260000000000001 4.6149277225691785
1.290000000000001 4.683736163833137
1.320000000000001 4.765602925549765
1.350000000000001 4.863099530984331
1.380000000000001 4.977077652139746
1.410000000000001 5.106611419578728
1.440000000000001 5.249130199084363
1.470000000000001 5.400728037105326
1.500000000000001 5.556616920231698
1.5300000000000011 5.711674164436394
1.5600000000000012 5.861021558603355
1.5900000000000012 6.0005681135451265
1.6200000000000012 6.127451448187635
1.6500000000000012 6.240325148137146
1.6800000000000013 6.339459679442755
1.7100000000000013 6.426649429106403
1.7400000000000013 6.504943885610725
1.7700000000000014 6.578242820911405
1.8000000000000014 6.650810708096952
1.8300000000000014 6.726772380922496
1.8600000000000014 6.809650484390392
1.8900000000000015 6.901996575542372
1.9200000000000015 7.005153558531276
1.9500000000000015 7.1191699877796895
1.9800000000000015 7.242868273695294
2.0100000000000016 7.374051006459328
2.0400000000000014 7.5098142667285135
2.070000000000001 7.646925460850304
2.100000000000001 7.782217018549771
2.130000000000001 7.912947500627325
2.1600000000000006 8.037087948264046
2.1900000000000004 8.153503182214902
2.22 8.262013189864021
2.25 8.363336231094491
2.28 8.458930677421561
2.3099999999999996 8.5507640235434
2.3399999999999994 8.641044150420875
2.369999999999999 8.731948940993169
2.399999999999999 8.825386641814918
2.429999999999999 8.922811774634553
2.4599999999999986 9.025111778453114
2.4899999999999984 9.1325692479148
2.5199999999999982 9.244895117923537
2.549999999999998 9.361320551980347
2.579999999999998 9.480729924870108
2.6099999999999977 9.60181498567544
2.6399999999999975 9.723230506238815
2.6699999999999973 9.843734366774743
2.699999999999997 9.962299356892371
2.729999999999997 10.078189068130364
2.7599999999999967 10.19099555406094
2.7899999999999965 10.300640908064313
2.8199999999999963 10.407348310712985
2.849999999999996 10.511589977648427
2.879999999999996 10.61402022685694
2.9099999999999957 10.715401396124168
2.9399999999999955 10.816529342709126
2.9699999999999953 10.918163888714233
2.999999999999995 11.020968231241445
3.029999999999995 11.125460276471383
3.0599999999999947 11.231977842887927
3.0899999999999945 11.340659138960552
3.1199999999999943 11.451439213752897
3.149999999999994 11.564062512502417
3.179999999999994 11.678110733849223
3.2099999999999937 11.793044241362981
3.2399999999999936 11.908254068482393
3.2699999999999934 12.023120398249906
3.299999999999993 12.137072419090913
3.329999999999993 12.249643818142646
3.3599999999999928 12.360518281027792
3.3899999999999926 12.469559919292402
3.4199999999999924 12.576825016758324
3.449999999999992 12.682553357685512
3.479999999999992 12.78713975793728
3.509999999999992 12.891088767914072
3.5399999999999916 12.99495755185896
3.5699999999999914 13.099293472981643
3.599999999999991 13.204573617867768
3.629999999999991 13.311153252215243
3.659999999999991 13.419229161442912
3.6899999999999906 13.528821951173146
3.7199999999999904 13.639779045951615
3.7499999999999902 13.75179763880958
3.77999999999999 13.864464389981404
3.80999999999999 13.977306698118806
3.8399999999999896 14.089849123734382
3.8699999999999894 14.2016680684833
3.8999999999999893 14.312438225065772
3.929999999999989 14.421965575198978
3.959999999999989 14.530203513057394
3.9899999999999887 14.63725091774569
4.019999999999989 14.743333234199916
4.049999999999989 14.848769623506469
4.079999999999989 14.953930812490816
4.10999999999999 15.059193139883575
4.13999999999999 15.164894453428401
4.16999999999999 15.271296975890447
4.19999999999999 15.37856111911207
4.229999999999991 15.48673270653956
4.259999999999991 15.595744282768951
4.289999999999991 15.705429550723387
4.319999999999991 15.815548373820988
4.349999999999992 15.9258187956823
4.379999999999992 16.035951872907308
4.409999999999992 16.145685067348587
4.439999999999992 16.254810387607854
4.469999999999993 16.363194334697813
4.499999999999993 16.470787880834443
4.529999999999993 16.57762598854397
4.559999999999993 16.68381745976943
4.589999999999994 16.789526956864947
4.619999999999994 16.894951831640185
4.649999999999994 17.000296828788386
4.679999999999994 17.105749726667103
4.709999999999995 17.211460666613213
4.739999999999995 17.317527285742194
4.769999999999995 17.423986923197052
4.799999999999995 17.530816275190062
4.829999999999996 17.637937972405613
4.859999999999996 17.7452328360545
4.889999999999996 17.852555989450902
4.919999999999996 17.959754699259033
4.949999999999997 18.066685745634505
4.979999999999997 18.173230395147908
5.009999999999997 18.279305475656788
5.039999999999997 18.384869587088957
5.069999999999998 18.489924104141497
5.099999999999998 18.59450926858717
5.129999999999998 18.69869619852299
5.159999999999998 18.802576017733188
5.189999999999999 18.90624754595825
5.219999999999999 19.009805057202016
5.249999999999999 19.113327483222477
5.279999999999999 19.216870155947237
5.31 19.32045979787599
5.34 19.424093074288244
5.37 19.527738605992944
5.4 19.63134198132937
5.430000000000001 19.734832973477893
5.460000000000001 19.838133960643802
5.490000000000001 19.941168549779654
5.520000000000001 20.043869428183235
5.550000000000002 20.146184611523108
5.580000000000002 20.248081515422033
5.610000000000002 20.349548584742962
5.640000000000002 20.450594459768617
5.670000000000003 20.551244944525365
5.700000000000003 20.651538253594257
5.730000000000003 20.751519180138132
5.760000000000003 20.85123296486777
5.790000000000004 20.95071955881675
5.820000000000004 21.05000886427297
5.850000000000004 21.149117432376084
5.880000000000004 21.248046876050704
5.910000000000005 21.346784044305103
5.940000000000005 21.445302832797765
5.970000000000005 21.543567352280434
6.000000000000005 21.641536012076998
6.030000000000006 21.73916595782709
6.060000000000006 21.83641732861125
6.090000000000006 21.93325687808555
6.120000000000006 22.029660608967525
6.150000000000007 22.125615168553335
6.180000000000007 22.22111792590998
6.210000000000007 22.316175817272782
6.240000000000007 22.410803170769316
6.270000000000008 22.505018832234768
6.300000000000008 22.598842966891542
6.330000000000008 22.692293909400654
6.360000000000008 22.785385423687913
6.390000000000009 22.878124666821478
6.420000000000009 22.970511039083057
6.450000000000009 23.062535995493683
6.480000000000009 23.154183808818583
6.51000000000001 23.245433099749487
6.54000000000001 23.336258869296195
6.57000000000001 23.426634824991407
6.60000000000001 23.516535768689607
6.6300000000000106 23.605939694356458
6.660000000000011 23.694829350697383
6.690000000000011 23.78319314012593
6.720000000000011 23.871025285600226
6.7500000000000115 23.958325275540496
6.780000000000012 24.045096764820535
6.810000000000012 24.131346076217707
6.840000000000012 24.217080529205305
6.8700000000000125 24.302306764057732
6.900000000000013 24.38702930022714
6.930000000000013 24.471249529942938
6.960000000000013 24.554965203901876
6.9900000000000135 24.638170402785438
7.020000000000014 24.720855954357326
7.050000000000014 24.80301023774414
7.080000000000014 24.884620295636605
7.1100000000000145 24.965673105014456
7.140000000000015 25.046156836246666
7.170000000000015 25.126061958656425
7.200000000000015 25.205382079862687
7.2300000000000155 25.284114415075045
7.260000000000016 25.362259894255683
7.290000000000016 25.43982293585585
7.320000000000016 25.516810938418452
7.3500000000000165 25.5932335524259
7.380000000000017 25.66910184871036
7.410000000000017 25.744427462512697
7.440000000000017 25.819221843513272
7.4700000000000175 25.893495671921762
7.500000000000018 25.967258496531787
7.530000000000018 26.04051859245259
7.560000000000018 26.11328302721945
7.5900000000000185 26.185557897569097
7.620000000000019 26.257348695122314
7.650000000000019 26.328660754492276
7.680000000000019 26.39949967992004
7.7100000000000195 26.469871688830487
7.74000000000002 26.53978379573653
7.77000000000002 26.60924386635524
7.80000000000002 26.678260474773232
7.8300000000000205 26.746842547969713
7.860000000000021 26.81499881557118
7.890000000000021 26.882737118484812
7.920000000000021 26.950063657141392
7.9500000000000215 27.016982255943915
7.980000000000022 27.083493704394364
8.010000000000021 27.14959525580935
8.04000000000002 27.215280297023895
8.07000000000002 27.280538203582715
8.10000000000002 27.34535434729069
8.130000000000019 27.409710214757595
8.160000000000018 27.47358359969291
8.190000000000017 27.536948827810022
8.220000000000017 27.599777030163217
8.250000000000016 27.662036431305342
8.280000000000015 27.72369258655388
8.310000000000015 27.78470854176429
8.340000000000014 27.845044892300148
8.370000000000013 27.904659795730996
8.400000000000013 27.96350897852241
8.430000000000012 28.021545780945683
8.460000000000012 28.07872124192305
8.49000000000001 28.134984196963764
8.52000000000001 28.19028138459808
8.55000000000001 28.244557584603726
8.580000000000009 28.297755787286825
8.610000000000008 28.349817423514416
8.640000000000008 28.400682651748383
8.670000000000007 28.45029069824395
8.700000000000006 28.498580294800384
8.730000000000006 28.54549022234351
8.760000000000005 28.590959902581382
8.790000000000004 28.63492996494442
8.820000000000004 28.677342664871535
8.850000000000003 28.718142180463417
8.880000000000003 28.757274785065547
8.910000000000002 28.794688926458306
8.940000000000001 28.83033529195142
8.97 28.864166893305985
9.0 28.896139173113745
9.03 28.92621021437737
9.059999999999999 28.954340962238113
9.089999999999998 28.980495452673715
9.119999999999997 29.00464100041532
9.149999999999997 29.02674830575308
9.179999999999996 29.04679148283305
9.209999999999996 29.064748061976122
9.239999999999995 29.080599041575166
9.269999999999994 29.094328947272484
9.299999999999994 29.10592591734148
9.329999999999993 29.11538182368728
9.359999999999992 29.1226923578511
9.389999999999992 29.12785708567821
9.419999999999991 29.13087932626663
9.44999999999999 29.13176591452247
9.47999999999999 29.13052688385651
9.50999999999999 29.127175309879707
9.539999999999988 29.121727271083216
9.569999999999988 29.114201833403918
9.599999999999987 29.10462083895561
9.629999999999987 29.09300844062245
9.659999999999986 29.079390713521057
9.689999999999985 29.06379551223458
9.719999999999985 29.046252651443314
9.749999999999984 29.02679414335276
9.779999999999983 29.005454094771217
9.809999999999983 28.98226842630008
9.839999999999982 28.957274436899667
9.869999999999981 28.93051052539908
9.89999999999998 28.902016262878995
9.92999999999998 28.871832621137287
9.95999999999998 28.840002286252677
9.989999999999979 28.806569798990406
10.019999999999978 28.76644206200565
10.049999999999978 28.71049511124609
10.079999999999977 28.629228676806566
10.109999999999976 28.515063519966183
10.139999999999976 28.364153729857158
10.169999999999975 28.177577259410967
10.199999999999974 27.961596972129207
10.229999999999974 27.726861425648544
10.259999999999973 27.486693487146436
10.289999999999973 27.254848549118186
10.319999999999972 27.04323077207846
10.349999999999971 26.86003136233723
10.37999999999997 26.70862108190006
10.40999999999997 26.587344597161483
10.43999999999997 26.490174902879126
10.469999999999969 26.408029196574695
10.499999999999968 26.330450569036017
10.529999999999967 26.24733009810793
10.559999999999967 26.1503773968415
10.589999999999966 26.034134685905897
10.619999999999965 25.896437231942983
10.649999999999965 25.738331827514642
10.679999999999964 25.56355086249206
10.709999999999964 25.377689476716334
10.739999999999963 25.187247660802598
10.769999999999962 24.998683674901176
10.799999999999962 24.81759334620369
10.829999999999961 24.648091950636555
10.85999999999996 24.492438158625486
10.88999999999996 24.35091077552578
10.919999999999959 24.22192366102971
10.949999999999958 24.102345385590933
10.979999999999958 23.987974887600068
11.009999999999957 23.874112845043655
11.039999999999957 23.756158959482214
11.069999999999956 23.63016495694202
11.099999999999955 23.49327736769325
11.129999999999955 23.34401778718175
11.159999999999954 23.182369773975473
11.189999999999953 23.009668630513318
11.219999999999953 22.82831668134041
11.249999999999952 22.641370884901814
11.279999999999951 22.452065597829723
11.30999999999995 22.26334010308032
11.33999999999995 22.07743604217133
11.36999999999995 21.895616010512953
11.399999999999949 21.718034472581017
11.429999999999948 21.54376903074167
11.459999999999948 21.370996670239773
11.489999999999947 21.19728053580013
11.519999999999946 21.019919460977846
11.549999999999946 20.836307248453807
11.579999999999945 20.644251310303748
11.609999999999944 20.442209905950627
11.639999999999944 20.22942323449724
11.669999999999943 20.00592725955366
11.699999999999942 19.772460370111226
11.729999999999942 19.530286029537343
11.759999999999941 19.28096367342981
11.78999999999994 19.02610346477685
11.81999999999994 18.76713881491319
11.84999999999994 18.505144705601822
11.879999999999939 18.240721330967645
11.909999999999938 17.973952016881537
11.939999999999937 17.70443414462193
11.969999999999937 17.431372263015323
11.999999999999936 17.153716079960155
12.029999999999935 16.870321660518893
12.059999999999935 16.58011344870233
12.089999999999934 16.28222649619366
12.119999999999933 15.976112633312933
12.149999999999933 15.661600214876035
12.179999999999932 15.338903978104096
12.209999999999932 15.00858786333303
12.239999999999931 14.671489433578724
12.26999999999993 14.328618214621944
12.29999999999993 13.981043192649254
12.329999999999929 13.629783851389764
12.359999999999928 13.275717796116195
12.389999999999928 12.919514980953192
12.419999999999927 12.561604588292933
12.449999999999926 12.20217590092598
12.479999999999926 11.841209657379945
12.509999999999925 11.478533349615015
12.539999999999925 11.113891361451156
12.569999999999924 10.74701943417147
12.599999999999923 10.377713350466081
12.629999999999923 10.005883136141325
12.659999999999922 9.631586733625085
12.689999999999921 9.25503947700215
12.71999999999992 8.876599244490349
12.74999999999992 8.49673001224022
12.77999999999992 8.115950107419536
12.809999999999919 7.734774382916644
12.839999999999918 7.353659362915177
12.869999999999918 6.972958603796989
12.899999999999917 6.5928921092390125
12.929999999999916 6.213531511494
12.959999999999916 5.834801540399282
12.989999999999915 5.456496651618153
13.019999999999914 5.078310318885263
13.049999999999914 4.699873379637408
13.079999999999913 4.320796834969105
13.109999999999912 3.9407144106475167
13.139999999999912 3.559320502824724
13.169999999999911 3.1763998387554504
13.19999999999991 2.791846492897335
13.22999999999991 2.405671327259518
13.25999999999991 2.0179985297190908
13.289999999999909 1.6290530000133017
13.319999999999908 1.2391412100017716
13.349999999999907 0.8486287173337113
13.379999999999907 0.45791740034592987
13.409999999999906 0.06742533057543021
13.439999999999905 -0.32242835369416234
13.469999999999905 -0.7112319132422034
13.499999999999904 -1.098581060564804
13.529999999999903 -1.4840740438701046
13.559999999999903 -1.8673138733198078
13.589999999999902 -2.247906739265418
13.619999999999902 -2.625452981291576
13.6499999999999 -2.999537478254827
13.6799999999999 -3.3697234314155047
13.7099999999999 -3.735551090011251
13.739999999999899 -4.096541721172267
13.769999999999898 -4.452206321431454
13.799999999999898 -4.802057991387068
13.829999999999897 -5.145626503379432
13.859999999999896 -5.482473379971449
13.889999999999896 -5.8122059774097075
13.919999999999895 -6.134489108461484
13.949999999999894 -6.449053132589631
13.979999999999894 -6.755697807622723
14.009999999999893 -7.054291745925742
14.039999999999893 -7.344767745282676
14.069999999999892 -7.627114782040513
14.099999999999891 -7.901367754403287
14.12999999999989 -8.167596171988494
14.15999999999989 -8.425893111446454
14.18999999999989 -8.67636551926747
14.219999999999889 -8.919126530572548
14.249999999999888 -9.154290249809527
14.279999999999887 -9.381969516848661
14.309999999999887 -9.60227660022572
14.339999999999886 -9.815326254508875
14.369999999999886 -10.021240253634785
14.399999999999885 -10.22015210645792
14.429999999999884 -10.412210620873035
14.459999999999884 -10.597581566482202
14.489999999999883 -10.776447332272225
14.519999999999882 -10.949004778473128
14.549999999999882 -11.115461682415562
14.579999999999881 -11.276032278313927
14.60999999999988 -11.430932270655244
14.63999999999988 -11.58037377085246
14.66999999999988 -11.724560726893051
14.699999999999878 -11.86368536941041
14.729999999999878 -11.997926041468045
14.759999999999877 -12.127446490251321
14.789999999999877 -12.252396548544644
14.819999999999876 -12.372913930978129
14.849999999999875 -12.489126953547132
14.879999999999875 -12.60115776792859
14.909999999999874 -12.709125494984354
14.939999999999873 -12.813148731315724
14.969999999999873 -12.913347096840939
14.999999999999872 -13.009841887371998
15.029999999999871 -13.102755688412698
15.05999999999987 -13.192210861214663
15.08999999999987 -13.278327349799888
15.11999999999987 -13.361220071699698
15.149999999999869 -13.440996150582095
15.179999999999868 -13.51775247479643
15.209999999999868 -13.591574143842946
15.239999999999867 -13.662533499176087
15.269999999999866 -13.730689741015286
15.299999999999866 -13.79608922304762
15.329999999999865 -13.85876613136613
15.359999999999864 -13.918743202917689
15.389999999999864 -13.97603234135834
15.419999999999863 -14.030635357818348
15.449999999999863 -14.082545046272472
15.479999999999862 -14.131746623111763
15.509999999999861 -14.178219581093215
15.53999999999986 -14.221939807985013
15.56999999999986 -14.26288168331116
15.59999999999986 -14.301019940635102
15.629999999999859 -14.336331182780167
15.659999999999858 -14.368795018162627
15.689999999999857 -14.398395080405509
15.719999999999857 -14.425119976073452
15.749999999999856 -14.448964331228888
15.779999999999855 -14.469929818029076
15.809999999999855 -14.488025834786125
15.839999999999854 -14.503269617642077
15.869999999999854 -14.515686046840997
15.899999999999853 -14.52530771527003
15.929999999999852 -14.532174871335584
15.959999999999852 -14.536335361813578
15.989999999999851 -14.537844721172863
16.01999999999985 -14.536766243167843
16.04999999999985 -14.533171009109605
16.079999999999853 -14.527137915109297
16.109999999999854 -14.518753415033771
16.139999999999855 -14.508110711332314
16.169999999999856 -14.495308379677176
16.199999999999857 -14.480448452239347
