# Results for "element" with Id # 64253 for search config "initial" at position: x0: -34.9; y0: -4.6; z0: 167.6667
# time PRESSURE
0.03 1376.2240455386645
0.06 3935.62513657851
0.09 7392.128725374758
0.12 11393.11100894363
0.15 15552.463674201708
0.18 19485.78504063394
0.21 22844.34517742378
0.24 25344.9840244627
0.27 26793.490619097563
0.30000000000000004 27099.484317588474
0.33000000000000007 26281.476061095178
0.3600000000000001 24461.647607181556
0.3900000000000001 21850.901968534352
0.42000000000000015 18725.770706087147
0.4500000000000002 15399.664777124302
0.4800000000000002 12191.56011259907
0.5100000000000002 9395.414397982722
0.5400000000000003 7253.391244083647
0.5700000000000003 5935.378922316064
0.6000000000000003 5526.457485828033
0.6300000000000003 6023.027377763112
0.6600000000000004 7337.417025727868
0.6900000000000004 9310.00723562829
0.7200000000000004 11727.33410214397
0.7500000000000004 14344.231180853058
0.7800000000000005 16907.860934574273
0.8100000000000005 19181.434276694526
0.8400000000000005 20965.519819994428
0.8700000000000006 22115.100943107776
0.9000000000000006 22550.940518529664
0.9300000000000006 22264.357389241843
0.9600000000000006 21315.145819560435
0.9900000000000007 19823.05078349881
1.0200000000000007 17953.83110050675
1.0500000000000007 15901.470884772243
1.0800000000000007 13868.435646293094
1.1100000000000008 12045.99623635914
1.1400000000000008 10596.545362736917
1.1700000000000008 9639.530696666508
1.2000000000000008 9242.180431137414
1.2300000000000009 9415.64990139581
1.260000000000001 10116.662447906161
1.290000000000001 11254.186199868562
1.320000000000001 12700.257217417966
1.350000000000001 14303.733553260188
1.380000000000001 15905.572052547312
1.410000000000001 17354.15726985409
1.440000000000001 18519.27323377169
1.470000000000001 19303.484982084898
1.500000000000001 19649.966329968775
1.5300000000000011 19546.168012548154
1.5600000000000012 19023.118478243174
1.5900000000000012 18150.571969618937
1.6200000000000012 17028.62353046335
1.6500000000000012 15776.731128613563
1.6800000000000013 14521.32486344189
1.7100000000000013 13383.280243231911
1.7400000000000013 12466.495912093847
1.7700000000000014 11848.648832363706
1.8000000000000014 11574.932534524607
1.8300000000000014 11655.24019220029
1.8600000000000014 12064.896717979425
1.8900000000000015 12748.686763687005
1.9200000000000015 13627.625257369644
1.9500000000000015 14607.688876758006
1.9800000000000015 15589.579431522576
2.0100000000000016 16478.541355398414
2.0400000000000014 17193.295557900638
2.070000000000001 17673.275689667295
2.100000000000001 17883.542658547867
2.130000000000001 17817.00181335391
2.1600000000000006 17493.81398313147
2.1900000000000004 16958.17414265411
2.22 16272.880865980456
2.25 15512.322187372867
2.28 14754.641409459085
2.3099999999999996 14073.894368984691
2.3399999999999994 13532.977784888863
2.369999999999999 13177.99336932229
2.399999999999999 13034.53929549169
2.429999999999999 13106.200115395774
2.4599999999999986 13375.278637818112
2.4899999999999984 13805.585095786355
2.5199999999999982 14346.908079568017
2.549999999999998 14940.647326408909
2.579999999999998 15525.99731036241
2.6099999999999977 16046.048561705411
2.6399999999999975 16453.209269761966
2.6699999999999973 16713.44396330858
2.699999999999997 16808.965039996612
2.729999999999997 16739.18093284698
2.7599999999999967 16519.888226869065
2.7899999999999965 16180.871727931302
2.8199999999999963 15762.230072078155
2.849999999999996 15309.856704860125
2.879999999999996 14870.573792577246
2.9099999999999957 14487.424950541354
2.9399999999999955 14195.591747340866
2.9699999999999953 14019.310574811218
2.999999999999995 13970.044841462028
3.029999999999995 14046.028685650926
3.0599999999999947 14233.152508874568
3.0899999999999945 14507.03065315408
3.1199999999999943 14835.980405100416
3.149999999999994 15184.568635629772
3.179999999999994 15517.341951085125
3.2099999999999937 15802.360048405511
3.2399999999999936 16014.190185819614
3.2699999999999934 16136.092290651246
3.299999999999993 16161.218871584118
3.329999999999993 16092.760122960362
3.3599999999999928 15943.076302421838
3.3899999999999926 15731.956575271985
3.4199999999999924 15484.227420474985
3.449999999999992 15226.985220006962
3.479999999999992 14986.753100769056
3.509999999999992 14786.853130490063
3.5399999999999916 14645.24656979832
3.5699999999999914 14573.034207817473
3.599999999999991 14573.731647750043
3.629999999999991 14643.348108199865
3.659999999999991 14771.215542329566
3.6899999999999906 14941.442697216942
3.7199999999999904 15134.811254065364
3.7499999999999902 15330.89886340062
3.77999999999999 15510.201811115056
3.80999999999999 15656.043303057242
3.8399999999999896 15756.087481888428
3.8699999999999894 15803.32860396612
3.8999999999999893 15796.48492508678
3.929999999999989 15739.792407817786
3.959999999999989 15642.253038150238
3.9899999999999887 15516.445425855723
4.019999999999989 15377.043996420114
4.049999999999989 15239.213344304211
4.079999999999989 15117.048356385987
4.10999999999999 15022.215479188657
4.13999999999999 14962.921024968313
4.16999999999999 14943.291656085228
4.19999999999999 14963.205220084456
4.229999999999991 15018.561526052334
4.259999999999991 15101.939999848582
4.289999999999991 15203.553034279328
4.319999999999991 15312.380780164738
4.349999999999992 15417.36133560787
4.379999999999992 15508.511823355993
4.409999999999992 15577.870970121536
4.439999999999992 15620.178425719088
4.469999999999993 15633.238083570131
4.499999999999993 15617.94804476773
4.529999999999993 15578.015181441624
4.559999999999993 15519.402489495875
4.589999999999994 15449.582560681118
4.619999999999994 15376.68513412435
4.649999999999994 15308.632282273138
4.679999999999994 15252.34950087368
4.709999999999995 15213.128629058378
4.739999999999995 15194.197416550036
4.769999999999995 15196.52631988233
4.799999999999995 15218.876635783558
4.829999999999996 15258.07011408851
4.859999999999996 15309.437494118087
4.889999999999996 15367.389007233765
4.919999999999996 15426.040733856516
4.949999999999997 15479.82945078077
4.979999999999997 15524.054497173282
5.009999999999997 15555.296167640108
5.039999999999997 15571.676004074545
5.069999999999998 15572.943674172016
5.099999999999998 15560.393370984233
5.129999999999998 15536.628764284338
5.159999999999998 15505.211523675
5.189999999999999 15470.236410286958
5.219999999999999 15435.881318376687
5.249999999999999 15405.979453185848
5.279999999999999 15383.65594599662
5.31 15371.061048569218
5.34 15369.220024008888
5.37 15378.007255695578
5.4 15396.238691462226
5.430000000000001 15421.864402263654
5.460000000000001 15452.235576016288
5.490000000000001 15484.413106876429
5.520000000000001 15515.483670364858
5.550000000000002 15542.851020901464
5.580000000000002 15564.474839522169
5.610000000000002 15579.036490202667
5.640000000000002 15586.020321718192
5.670000000000003 15585.708503138227
5.700000000000003 15579.095978801446
5.730000000000003 15567.740070199867
5.760000000000003 15553.564381185772
5.790000000000004 15538.639939300912
5.820000000000004 15524.96747196677
5.850000000000004 15514.282629546113
5.880000000000004 15507.901803424415
5.910000000000005 15506.621117242468
5.940000000000005 15510.674666292582
5.970000000000005 15519.751871180964
6.000000000000005 15533.067644089733
6.030000000000006 15549.474961462944
6.060000000000006 15567.605051011134
6.090000000000006 15586.01925160809
6.120000000000006 15603.356416660681
6.150000000000007 15618.461843437855
6.180000000000007 15630.486200200206
6.210000000000007 15638.946961874275
6.240000000000007 15643.749166532665
6.270000000000008 15645.166467776504
6.300000000000008 15643.787550780637
6.330000000000008 15640.43555745434
6.360000000000008 15636.070443588394
6.390000000000009 15631.685028849348
6.420000000000009 15628.205649341835
6.450000000000009 15626.406895866421
6.480000000000009 15626.846989920705
6.51000000000001 15629.828835694256
6.54000000000001 15635.389155120862
6.57000000000001 15643.313790375498
6.60000000000001 15653.176060411352
6.6300000000000106 15664.393082413004
6.660000000000011 15676.292955274734
6.690000000000011 15688.185664631957
6.720000000000011 15699.430784017233
6.7500000000000115 15709.495623757877
6.780000000000012 15717.99876456982
6.810000000000012 15724.736346532602
6.840000000000012 15729.68926916835
6.8700000000000125 15733.01259889262
6.900000000000013 15735.00948855497
6.930000000000013 15736.092328153012
6.960000000000013 15736.736470231062
6.9900000000000135 15737.431093787933
7.020000000000014 15738.63169947534
7.050000000000014 15740.719039193888
7.080000000000014 15743.967370055865
7.1100000000000145 15748.524822715142
7.140000000000015 15754.407080004163
7.170000000000015 15761.503552601731
7.200000000000015 15769.59521682414
7.2300000000000155 15778.381552549334
7.260000000000016 15787.513558404313
7.290000000000016 15796.629478661283
7.320000000000016 15805.38986625289
7.3500000000000165 15813.508597280019
7.380000000000017 15820.777314439618
7.410000000000017 15827.08115951972
7.440000000000017 15832.40498967736
7.4700000000000175 15836.8297792095
7.500000000000018 15840.52013906674
7.530000000000018 15843.704414985492
7.560000000000018 15846.649668142945
7.5900000000000185 15849.634123075572
7.620000000000019 15852.919773053572
7.650000000000019 15856.727781181206
7.680000000000019 15861.218783948425
7.7100000000000195 15866.47986656782
7.74000000000002 15872.519130216158
7.77000000000002 15879.268240555004
7.80000000000002 15886.592193725364
7.8300000000000205 15894.305155848166
7.860000000000021 15902.19082299911
7.890000000000021 15910.02507203896
7.920000000000021 15917.59842471218
7.9500000000000215 15924.736333107045
7.980000000000022 15931.315171763159
8.010000000000021 15937.272733637841
8.04000000000002 15942.612114482374
8.07000000000002 15947.39886817257
8.10000000000002 15951.752164847947
8.130000000000019 15955.830809727002
8.160000000000018 15959.81568442882
8.190000000000017 15963.890569587524
8.220000000000017 15968.223236114252
8.250000000000016 15972.948871744853
8.280000000000015 15978.157428059545
8.310000000000015 15983.886073403639
8.340000000000014 15990.117273733238
8.370000000000013 15996.782505900896
8.400000000000013 16003.771236531415
8.430000000000012 16010.943829817908
8.460000000000012 16018.147178451049
8.49000000000001 16025.231081897233
8.52000000000001 16032.064021297998
8.55000000000001 16038.546351244957
8.580000000000009 16044.619533585295
8.610000000000008 16050.270943029498
8.640000000000008 16055.533492194509
8.670000000000007 16060.48041508783
8.700000000000006 16065.21602284029
8.730000000000006 16069.863506607348
8.760000000000005 16074.55116010001
8.790000000000004 16079.398710070223
8.820000000000004 16084.50474926885
8.850000000000003 16089.937020211446
8.880000000000003 16095.726404715986
8.910000000000002 16101.865107231668
8.940000000000001 16108.309022738702
8.97 16114.98399638604
9.0 16121.795106577996
9.03 16128.637740164595
9.059999999999999 16135.409322040214
9.089999999999998 16142.020434861726
9.119999999999997 16148.404145697596
9.149999999999997 16154.522705576299
9.179999999999996 16160.370584671946
9.209999999999996 16165.9736765142
9.239999999999995 16171.385136052762
9.269999999999994 16176.678698190248
9.299999999999994 16181.940037059314
9.329999999999993 16187.256823903783
9.359999999999992 16192.709292301231
9.389999999999992 16198.361908664792
9.419999999999991 16204.256966085213
9.44999999999999 16210.41087619002
9.47999999999999 16216.813556375811
9.50999999999999 16223.430630273568
9.539999999999988 16230.208393125155
9.569999999999988 16237.080711824176
9.599999999999987 16243.977206702608
9.629999999999987 16250.831316580256
9.659999999999986 16257.587200649712
9.689999999999985 16264.205152862307
9.719999999999985 16270.665404791811
9.749999999999984 16276.969559553298
9.779999999999983 16283.139833621075
9.809999999999983 16289.21517560844
9.839999999999982 16295.24584244183
9.869999999999981 16301.287145653116
9.89999999999998 16307.393000833574
9.92999999999998 16313.610144852366
9.95999999999998 16319.973068150906
9.989999999999979 16326.50058295657
10.019999999999978 15099.708888903933
10.049999999999978 12260.66251305261
10.079999999999977 8268.175942108166
10.109999999999976 3686.910870888842
10.139999999999976 -887.4529394784063
10.169999999999975 -4902.747959116325
10.199999999999974 -7913.8944852808145
10.229999999999974 -9628.418556695184
10.259999999999973 -9930.032159294911
10.289999999999973 -8879.398716839798
10.319999999999972 -6693.970586898286
10.349999999999971 -3710.9420716150753
10.37999999999997 -338.9207029326103
10.40999999999997 2995.292795835605
10.43999999999997 5898.380820036723
10.469999999999969 8054.813731300839
10.499999999999968 9259.120611893182
10.529999999999967 9433.068867936996
10.559999999999967 8626.546911053956
10.589999999999966 7003.000232336589
10.619999999999965 4812.054125418783
10.649999999999965 2353.487340169461
10.679999999999964 -62.41673885666592
10.709999999999964 -2152.955846713065
10.739999999999963 -3694.907453994604
10.769999999999962 -4546.772847934227
10.799999999999962 -4659.425562083941
10.829999999999961 -4074.8164264860643
10.85999999999996 -2913.942025183802
10.88999999999996 -1356.3896968447
10.919999999999959 385.3856739663338
10.949999999999958 2093.601531035958
10.979999999999958 3571.1276167361134
11.009999999999957 4662.997503351913
11.039999999999957 5271.282508528411
11.069999999999956 5362.111118194885
11.099999999999955 4964.604278280463
11.129999999999955 4162.50956586893
11.159999999999954 3080.0682919050614
11.189999999999953 1864.26808250976
11.219999999999953 665.863445111909
11.249999999999952 -378.4895799338096
11.279999999999951 -1160.9751324817303
11.30999999999995 -1612.7639006432364
11.33999999999995 -1708.7747307215834
11.36999999999995 -1466.950184714122
11.399999999999949 -942.6179571466025
11.429999999999948 -218.9985483190439
11.459999999999948 604.6976753747402
11.489999999999947 1426.0074987110554
11.519999999999946 2151.245287067347
11.549999999999946 2705.500113318466
11.579999999999945 3039.621800562954
11.609999999999944 3133.653456424247
11.639999999999944 2996.619312589533
11.669999999999943 2663.0179818352835
11.699999999999942 2186.7030889672315
11.729999999999942 1633.091600903108
11.759999999999941 1070.7391206303841
11.78999999999994 563.2983985229439
11.81999999999994 162.74986293335118
11.84999999999994 -95.44194312645676
11.879999999999939 -194.86680631967948
11.909999999999938 -138.3253271959341
11.939999999999937 54.19784678178022
11.969999999999937 349.31565502075495
11.999999999999936 705.1817794492208
12.029999999999935 1076.9296103598072
12.059999999999935 1421.948140548662
12.089999999999934 1704.414423410206
12.119999999999933 1898.644226822951
12.149999999999933 1990.9980897576918
12.179999999999932 1980.271402872106
12.209999999999932 1876.6714713996362
12.239999999999931 1699.6317230790619
12.26999999999993 1474.8211335053911
12.29999999999993 1230.7571548915348
12.329999999999929 995.4318199478485
12.359999999999928 793.3212416844833
12.389999999999928 643.0675398769979
12.419999999999927 556.0193980432066
12.449999999999926 535.7046655006177
12.479999999999926 578.1998214736907
12.509999999999925 673.2664416788111
12.539999999999925 806.0512382252587
12.569999999999924 959.1106979139004
12.599999999999923 1114.506500960735
12.629999999999923 1255.7420378288336
12.659999999999922 1369.3483456336185
12.689999999999921 1445.9908832095084
12.71999999999992 1481.031964285776
12.74999999999992 1474.548493609469
12.77999999999992 1430.8636949371862
12.809999999999919 1357.6932302626155
12.839999999999918 1265.0325188156785
12.869999999999918 1163.9275178681787
12.899999999999917 1065.2649677976808
12.929999999999916 978.7000148318383
12.959999999999916 911.8144968664539
12.989999999999915 869.563630900394
13.019999999999914 854.0344024620023
13.049999999999914 864.50774237691
13.079999999999913 897.7847265881829
13.109999999999912 948.7189713106465
13.139999999999912 1010.8821932843833
13.169999999999911 1077.2862928860666
13.19999999999991 1141.090956263597
13.22999999999991 1196.2342386580867
13.25999999999991 1237.936687684041
13.289999999999909 1263.0453712449698
13.319999999999908 1270.202733891284
13.349999999999907 1259.8409846967827
13.379999999999907 1234.0148900763093
13.409999999999906 1196.1008889148284
13.439999999999905 1150.3991717433842
13.469999999999905 1101.6782434544073
13.499999999999904 1054.7066016833828
13.529999999999903 1013.8127598873318
13.559999999999903 982.5100770406625
13.589999999999902 963.2131818208475
13.619999999999902 957.0675875068272
13.6499999999999 963.901507026941
13.6799999999999 982.3022305870317
13.7099999999999 1009.8035099865884
13.739999999999899 1043.1631129147568
13.769999999999898 1078.703711549875
13.799999999999898 1112.6830986812663
13.829999999999897 1141.6584400601162
13.859999999999896 1162.812888745963
13.889999999999896 1174.2111271720973
13.919999999999895 1174.9630861409487
13.949999999999894 1165.280637822137
13.979999999999894 1146.4234377162088
14.009999999999893 1120.540342905087
14.039999999999893 1090.425148111302
14.069999999999892 1059.2162427462877
14.099999999999891 1030.0649480867282
14.12999999999989 1005.8102626998323
14.15999999999989 988.6949677117725
14.18999999999989 980.1495818973849
14.219999999999889 980.6664933103311
14.249999999999888 989.7773023234514
14.279999999999887 1006.129686920131
14.309999999999887 1027.6534672031582
14.339999999999886 1051.798847695734
14.369999999999886 1075.8227669325313
14.399999999999885 1097.0887161445535
14.429999999999884 1113.345744688691
14.459999999999884 1122.9598830824043
14.489999999999883 1125.0714428935314
14.519999999999882 1119.6626906120027
14.549999999999882 1107.5327846148862
14.579999999999881 1090.1865280834654
14.60999999999988 1069.648231958058
14.63999999999988 1048.2232187007394
14.66999999999988 1028.235316995867
14.699999999999878 1011.7718199484488
14.729999999999878 1000.4628197391673
14.759999999999877 995.31743830676
14.789999999999877 996.6337164158067
14.819999999999876 1003.9909071899425
14.849999999999875 1016.3215170860901
14.879999999999875 1032.052124864046
14.909999999999874 1049.296038985441
14.939999999999873 1066.0742834137707
14.969999999999873 1080.5392188818505
14.999999999999872 1091.173940433845
15.029999999999871 1096.947214822015
15.05999999999987 1097.4097570001697
15.08999999999987 1092.7205510032259
15.11999999999987 1083.6051424207935
15.149999999999869 1071.2522000603758
15.179999999999868 1057.1626952775523
15.209999999999868 1042.9688289241703
15.239999999999867 1030.2448752087512
15.269999999999866 1020.3330332375156
15.299999999999866 1014.2029990740265
15.329999999999865 1012.3586334298719
15.359999999999864 1014.8012907005763
15.389999999999864 1021.0512917546007
15.419999999999863 1030.2216121194106
15.449999999999863 1041.1367999895795
15.479999999999862 1052.478295384417
15.509999999999861 1062.9387176334967
15.53999999999986 1071.3675211338525
15.56999999999986 1076.8936919516375
15.59999999999986 1079.0094348729656
15.629999999999859 1077.6090628087466
15.659999999999858 1072.9823211957375
15.689999999999857 1065.7628486182518
15.719999999999857 1056.84086432299
15.749999999999856 1047.2504834879242
15.779999999999855 1038.047004978907
15.809999999999855 1030.1879571399165
15.839999999999854 1024.429793460297
15.869999999999854 1021.251684302848
15.899999999999853 1020.8141575039529
15.929999999999852 1022.9583925638528
15.959999999999852 1027.2393945109593
15.989999999999851 1032.9899905550644
16.01999999999985 1039.4083173230124
16.04999999999985 1045.6565770268735
16.079999999999853 1050.9580651279455
16.109999999999854 1054.6817318723201
16.139999999999855 1056.4057667189109
16.169999999999856 1055.954585370518
16.199999999999857 1053.4057817017176
16.22999999999986 1049.0672910065548
16.25999999999986 1043.4322933427732
