# Results for "element" with Id # 2044081 for search config "initial" at position: x0: -28.5210526316; y0: -10.9789473684; z0: 167.6667
# time PRESSURE
0.03 1373.5332646366453
0.06 3927.947914560114
0.09 7377.730959549894
0.12 11370.940601735794
0.15 15522.213256358918
0.18 19447.8928644269
0.21 22799.933851891332
0.24 25295.740394817603
0.27 26741.494972816632
0.30000000000000004 27047.002855599963
0.33000000000000007 26230.73600695039
0.3600000000000001 24414.617623510425
0.3900000000000001 21809.100935602764
0.42000000000000015 18690.125599687617
0.4500000000000002 15370.433151292465
0.4800000000000002 12168.325417284503
0.5100000000000002 9377.153606835353
0.5400000000000003 7238.60521764371
0.5700000000000003 5922.268279641523
0.6000000000000003 5513.121740125477
0.6300000000000003 6007.664201320533
0.6600000000000004 7318.500694577724
0.6900000000000004 9286.430390608852
0.7200000000000004 11698.502259539468
0.7500000000000004 14310.10441632082
0.7800000000000005 16868.940897806762
0.8100000000000005 19138.697716981285
0.8400000000000005 20920.3031394099
0.8700000000000006 22068.944709849944
0.9000000000000006 22505.40877530624
0.9300000000000006 22220.852152662548
0.9600000000000006 21274.741216157272
0.9900000000000007 19786.370614225256
1.0200000000000007 17920.98837643633
1.0500000000000007 15872.077797609549
1.0800000000000007 13841.680425871135
1.1100000000000008 12020.772377048395
1.1400000000000008 10571.611309234988
1.1700000000000008 9613.675555305083
1.2000000000000008 9214.372806261816
1.2300000000000009 9385.151933408124
1.260000000000001 10083.09713978882
1.290000000000001 11217.552990118882
1.320000000000001 12660.89706932582
1.350000000000001 14262.251093225872
1.380000000000001 15862.72778090633
1.410000000000001 17310.74700912901
1.440000000000001 18476.01378965092
1.470000000000001 19260.92349061691
1.500000000000001 19608.426153008077
1.5300000000000011 19505.73649420665
1.5600000000000012 18983.673863087377
1.5900000000000012 18111.839432819295
1.6200000000000012 16990.246101640798
1.6500000000000012 15738.34027465457
1.6800000000000013 14482.59794664927
1.7100000000000013 13343.976670061724
1.7400000000000013 12426.469322859037
1.7700000000000014 11807.837939417443
1.8000000000000014 11533.336907926507
1.8300000000000014 11612.88947768134
1.8600000000000014 12021.821637971909
1.8900000000000015 12704.898673330355
1.9200000000000015 13583.108117912574
1.9500000000000015 14562.40417040632
1.9800000000000015 15543.481434394522
2.0100000000000016 16431.597940381213
2.0400000000000014 17145.508641963614
2.070000000000001 17624.69569123893
2.100000000000001 17834.272942590458
2.130000000000001 17767.19129767438
2.1600000000000006 17443.63878289899
2.1900000000000004 16907.81146453355
2.22 16222.480027346628
2.25 15461.978299198707
2.28 14704.376629840464
2.3099999999999996 14023.650266982724
2.3399999999999994 13482.62014597916
2.369999999999999 13127.3285997381
2.399999999999999 12983.339546329014
2.429999999999999 13054.233025872825
2.4599999999999986 13322.337065729207
2.4899999999999984 13751.512485511512
2.5199999999999982 14291.61609453474
2.549999999999998 14884.123678400978
2.579999999999998 15468.303336275927
2.6099999999999977 15987.307462424395
2.6399999999999975 16393.587170818726
2.6699999999999973 16653.126719791755
2.699999999999997 16748.13401109748
2.729999999999997 16677.990887886757
2.7599999999999967 16458.44992983036
2.7899999999999965 16119.241007544586
2.8199999999999963 15700.404166304403
2.849999999999996 15247.77774940516
2.879999999999996 14808.138397194594
2.9099999999999957 14424.49824306116
2.9399999999999955 14132.023844882588
2.9699999999999953 13954.953386803685
2.999999999999995 13904.767309019331
3.029999999999995 13979.728886802031
3.0599999999999947 14165.765655567935
3.0899999999999945 14438.532480893282
3.1199999999999943 14766.386053792197
3.149999999999994 15113.927522849634
3.179999999999994 15445.729535455812
3.2099999999999937 15729.867542441178
3.2399999999999936 15940.913407760021
3.2699999999999934 16062.120805252236
3.299999999999993 16086.626442736017
3.329999999999993 16017.597354529807
3.3599999999999928 15867.366015506837
3.3899999999999926 15655.692269253112
3.4199999999999924 15407.374809609984
3.449999999999992 15149.486569079718
3.479999999999992 14908.533803702352
3.509999999999992 14707.829751985082
3.5399999999999916 14565.335466743665
3.5699999999999914 14492.159787389142
3.599999999999991 14491.833365834158
3.629999999999991 14560.385516977605
3.659999999999991 14687.170909443292
3.6899999999999906 14856.321005530917
3.7199999999999904 15048.637729759357
3.7499999999999902 15243.714419644839
3.77999999999999 15422.05701723992
3.80999999999999 15566.991644664007
3.8399999999999896 15666.178687986201
3.8699999999999894 15712.602783905946
3.8999999999999893 15704.968115451196
3.929999999999989 15647.493921614006
3.959999999999989 15549.164811445335
3.9899999999999887 15422.543291009944
4.019999999999989 15282.29063224531
4.049999999999989 15143.562475043353
4.079999999999989 15020.449669695467
4.10999999999999 14924.619686877102
4.13999999999999 14864.284511314698
4.16999999999999 14843.58022271952
4.19999999999999 14862.396570007108
4.229999999999991 14916.646312124707
4.259999999999991 14998.921416430814
4.289999999999991 15099.445080971633
4.319999999999991 15207.205449759502
4.349999999999992 15311.145113826593
4.379999999999992 15401.281934960585
4.409999999999992 15469.651778043466
4.439999999999992 15510.988371087293
4.469999999999993 15523.087456592477
4.499999999999993 15506.83776473351
4.529999999999993 15465.936679209057
4.559999999999993 15406.33863469839
4.589999999999994 15335.509465564857
4.619999999999994 15261.574617053928
4.649999999999994 15192.454645241345
4.679999999999994 15135.076321420041
4.709999999999995 15094.735271688596
4.739999999999995 15074.66496862482
4.769999999999995 15075.842764660061
4.799999999999995 15097.037188740944
4.829999999999996 15135.076758915784
4.859999999999996 15185.297821336433
4.889999999999996 15242.114502214019
4.919999999999996 15299.64473891671
4.949999999999997 15352.325044649078
4.979999999999997 15395.452549632486
5.009999999999997 15425.60378392262
5.039999999999997 15440.895448707248
5.069999999999998 15441.071975705325
5.099999999999998 15427.422518200934
5.129999999999998 15402.546437429693
5.159999999999998 15370.002247454617
5.189999999999999 15333.88300805188
5.219999999999999 15298.366441177815
5.249999999999999 15267.287037470987
5.279999999999999 15243.772507195194
5.31 15229.976651527522
5.34 15226.928611629744
5.37 15234.506606949264
5.4 15251.530081212679
5.430000000000001 15275.951860997136
5.460000000000001 15305.124816778736
5.490000000000001 15336.110383461404
5.520000000000001 15365.99459905825
5.550000000000002 15392.179543148894
5.580000000000002 15412.622617180823
5.610000000000002 15426.002477957683
5.640000000000002 15431.800612503956
5.670000000000003 15430.296491275716
5.700000000000003 15422.482960087948
5.730000000000003 15409.91613822474
5.760000000000003 15394.519377309955
5.790000000000004 15378.364327713605
5.820000000000004 15363.453036739931
5.850000000000004 15351.522896056098
5.880000000000004 15343.892265892675
5.910000000000005 15341.359360635644
5.940000000000005 15344.16024732656
5.970000000000005 15351.98593176108
6.000000000000005 15364.0523524938
6.030000000000006 15379.212924053154
6.060000000000006 15396.098737763943
6.090000000000006 15413.270504024891
6.120000000000006 15429.366019654146
6.150000000000007 15443.229244718214
6.180000000000007 15454.009455884934
6.210000000000007 15461.222738423787
6.240000000000007 15464.773003749995
6.270000000000008 15464.933121710286
6.300000000000008 15462.291404585016
6.330000000000008 15457.671107354654
6.360000000000008 15452.0327511812
6.390000000000009 15446.370011141065
6.420000000000009 15441.610254904836
6.450000000000009 15438.529251436978
6.480000000000009 15437.686406490357
6.51000000000001 15439.385573398407
6.54000000000001 15443.66421405978
6.57000000000001 15450.308551790404
6.60000000000001 15458.891933322664
6.6300000000000106 15468.831102185512
6.660000000000011 15479.453447753622
6.690000000000011 15490.068145473666
6.720000000000011 15500.03400076135
6.7500000000000115 15508.817706478281
6.780000000000012 15516.037367843895
6.810000000000012 15521.48872349726
6.840000000000012 15525.152346680456
6.8700000000000125 15527.183192659528
6.900000000000013 15527.884602262411
6.930000000000013 15527.669369034533
6.960000000000013 15527.013332037326
6.9900000000000135 15526.406181599172
7.020000000000014 15526.30386372157
7.050000000000014 15527.087495471802
7.080000000000014 15529.031563740398
7.1100000000000145 15532.284274390824
7.140000000000015 15536.861231570507
7.170000000000015 15542.65157757028
7.200000000000015 15549.435893694419
7.2300000000000155 15556.913192327404
7.260000000000016 15564.733972689683
7.290000000000016 15572.53596532412
7.320000000000016 15579.97921164719
7.3500000000000165 15586.777108980106
7.380000000000017 15592.720949802864
7.410000000000017 15597.69566435357
7.440000000000017 15601.686070558999
7.4700000000000175 15604.77320402889
7.500000000000018 15607.121767187631
7.530000000000018 15608.960184754636
7.560000000000018 15610.555574467744
7.5900000000000185 15612.186196602466
7.620000000000019 15614.114069528747
7.650000000000019 15616.560344989604
7.680000000000019 15619.685536915436
7.7100000000000195 15623.57650206288
7.74000000000002 15628.241048835558
7.77000000000002 15633.610555909949
7.80000000000002 15639.549754805379
7.8300000000000205 15645.872497656108
7.860000000000021 15652.362132624916
7.890000000000021 15658.794246101013
7.920000000000021 15664.959196026593
7.9500000000000215 15670.682387624234
7.980000000000022 15675.840252220847
8.010000000000021 15680.370679039706
8.04000000000002 15684.276844141546
8.07000000000002 15687.624351263798
8.10000000000002 15690.532374186334
8.130000000000019 15693.159701550094
8.160000000000018 15695.687196504832
8.190000000000017 15698.298591005014
8.220000000000017 15701.16155700274
8.250000000000016 15704.411120157223
8.280000000000015 15708.137032109902
8.310000000000015 15712.376260108691
8.340000000000014 15717.111079375658
8.370000000000013 15722.272809375103
8.400000000000013 15727.750799495128
8.430000000000012 15733.40529544513
8.460000000000012 15739.083085246342
8.49000000000001 15744.633910296994
8.52000000000001 15749.926309273138
8.55000000000001 15754.860782713986
8.580000000000009 15759.378961177365
8.610000000000008 15763.468340937608
8.640000000000008 15767.161866904573
8.670000000000007 15770.532785621093
8.700000000000006 15773.68542333163
8.730000000000006 15776.743046117619
8.760000000000005 15779.83406750181
8.790000000000004 15783.078327176061
8.820000000000004 15786.574514654716
8.850000000000003 15790.390485948597
8.880000000000003 15794.557265015414
8.910000000000002 15799.067240165738
8.940000000000001 15803.87652357289
8.97 15808.911120165089
9.0 15814.07623485729
9.03 15819.267449288885
9.059999999999999 15824.382473785456
9.089999999999998 15829.33229286089
9.119999999999997 15834.050344683576
9.149999999999997 15838.499288852774
9.179999999999996 15842.67406833002
9.209999999999996 15846.601050934538
9.239999999999995 15850.333859851427
9.269999999999994 15853.946662796534
9.299999999999994 15857.525447702186
9.329999999999993 15861.15810174321
9.359999999999992 15864.925014540644
9.389999999999992 15868.890893364976
9.419999999999991 15873.098355635128
9.44999999999999 15877.564147171997
9.47999999999999 15882.278472259144
9.50999999999999 15887.207178775521
9.539999999999988 15892.296698707434
9.569999999999988 15897.480973617143
9.599999999999987 15902.68968172272
9.629999999999987 15907.856277411956
9.659999999999986 15912.92485985925
9.689999999999985 15917.855515003055
9.719999999999985 15922.628176417897
9.749999999999984 15927.244098349653
9.779999999999983 15931.725150944045
9.809999999999983 15936.109880567134
9.839999999999982 15940.448026765549
9.869999999999981 15944.794276985233
9.89999999999998 15949.20179251462
9.92999999999998 15953.716619178103
9.95999999999998 15958.372651780604
9.989999999999979 15963.188148884292
10.019999999999978 14738.480271063783
10.049999999999978 11906.000508366975
10.079999999999977 7922.5617014309355
10.109999999999976 3350.8729523895577
10.139999999999976 -1214.9233107031653
10.169999999999975 -5223.602929429388
10.199999999999974 -8230.444163660899
10.229999999999974 -9942.886064540515
10.259999999999973 -10244.300518589545
10.289999999999973 -9194.92541236256
10.319999999999972 -7011.801129496158
10.349999999999971 -4031.7482287223206
10.37999999999997 -663.0154871196461
10.40999999999997 2667.9712489218455
10.43999999999997 5568.289660017274
10.469999999999969 7722.79166956257
10.499999999999968 8926.311304363107
10.529999999999967 9100.77640416582
10.559999999999967 8296.045244018318
10.589999999999966 6675.336375113286
10.619999999999965 4487.888771861051
10.649999999999965 2033.00542894001
10.679999999999964 -379.511230956277
10.709999999999964 -2467.3666056157476
10.739999999999963 -4007.6147008627586
10.769999999999962 -4858.872181229601
10.799999999999962 -4971.965589909949
10.829999999999961 -4388.65954095056
10.85999999999996 -3229.665232139859
10.88999999999996 -1674.235141061966
10.919999999999959 65.50942535993408
10.949999999999958 1772.073096628055
10.979999999999958 3248.5322138146716
11.009999999999957 4340.026296678228
11.039999999999957 4948.627252511314
11.069999999999956 5040.368539449508
11.099999999999955 4644.2020444827285
11.129999999999955 3843.6612736381317
11.159999999999954 2762.760916066528
11.189999999999953 1548.2805367612468
11.219999999999953 350.8107920820264
11.249999999999952 -693.0943979043584
11.279999999999951 -1475.6515200257804
11.30999999999995 -1927.9956844190738
11.33999999999995 -2024.9528333432786
11.36999999999995 -1784.3325692675064
11.399999999999949 -1261.309801180474
11.429999999999948 -538.9535070134039
11.459999999999948 283.6569822410804
11.489999999999947 1104.1539181268347
11.519999999999946 1828.902767316443
11.549999999999946 2382.997399236571
11.579999999999945 2717.249482056605
11.609999999999944 2811.630073200316
11.639999999999944 2675.0695495526734
11.669999999999943 2341.9642964554464
11.699999999999942 1866.071138457481
11.729999999999942 1312.7280009163783
11.759999999999941 750.4383626377934
11.78999999999994 242.83397871617882
11.81999999999994 -158.09344839526418
11.84999999999994 -416.83965923896466
11.879999999999939 -516.9333748659635
11.909999999999938 -461.1021966448651
11.939999999999937 -269.2559043530701
11.969999999999937 25.285293536882932
11.999999999999936 380.7256459059146
12.029999999999935 752.2273956084165
12.059999999999935 1097.1848805404932
12.089999999999934 1379.7581522037576
12.119999999999933 1574.2277773164228
12.149999999999933 1666.9068865239033
12.179999999999932 1656.5380735507968
12.209999999999932 1553.277416134532
12.239999999999931 1376.51489401273
12.26999999999993 1151.8887434380815
12.29999999999993 907.9011866369655
12.329999999999929 672.5449770837358
12.359999999999928 470.31122286689657
12.389999999999928 319.86800988121234
12.419999999999927 232.59658219508796
12.449999999999926 212.0592191441328
12.479999999999926 254.36446552678797
12.509999999999925 349.29962215448984
12.539999999999925 482.02758191356156
12.569999999999924 635.1100782888153
12.599999999999923 790.6031312908995
12.629999999999923 931.9950954459147
12.659999999999922 1045.7953344147697
12.689999999999921 1122.644390436165
12.71999999999992 1157.879672787345
12.74999999999992 1151.5562525155815
12.77999999999992 1107.9805502854579
12.809999999999919 1034.8578836523625
12.839999999999918 942.1804753696465
12.869999999999918 840.9979741363261
12.899999999999917 742.2066407540187
12.929999999999916 655.4752841033782
12.959999999999916 588.4014187093136
12.989999999999915 545.9555016394743
13.019999999999914 530.2371967146823
13.049999999999914 540.5359521941637
13.079999999999913 573.6561827226234
13.109999999999912 624.4493233706444
13.139999999999912 686.4798796634342
13.169999999999911 752.749184852978
13.19999999999991 816.40489813337
13.22999999999991 871.373245364768
13.25999999999991 912.8644672270377
13.289999999999909 937.7177477035632
13.319999999999908 944.5708602765413
13.349999999999907 933.8549086902166
13.379999999999907 907.6267781453495
13.409999999999906 869.2677012512114
13.439999999999905 823.0852295588918
13.469999999999905 773.8572503706235
13.499999999999904 726.3623519911822
13.529999999999903 684.9386206117255
13.559999999999903 653.1071651686818
13.589999999999902 633.2878895420612
13.619999999999902 626.6289818241064
13.6499999999999 632.9590263280395
13.6799999999999 650.8637059980026
13.7099999999999 677.8738629166565
13.739999999999899 710.744316235289
13.769999999999898 745.7953763042598
13.799999999999898 779.2833455867769
13.829999999999897 807.7655860514097
13.859999999999896 828.4268647277524
13.889999999999896 839.3344918581201
13.919999999999895 839.6020782768663
13.949999999999894 829.4460304528014
13.979999999999894 810.1303692505566
14.009999999999893 783.808047858818
14.039999999999893 753.276609280214
14.069999999999892 721.6766898828072
14.099999999999891 692.1598845889546
14.12999999999989 667.5645106188094
14.15999999999989 650.1314337766137
14.18999999999989 641.2884103015001
14.219999999999889 641.524037392679
14.249999999999888 650.3649231781573
14.279999999999887 666.4528609735148
14.309999999999887 687.7120557642139
14.339999999999886 711.5881140927163
14.369999999999886 735.3349513231809
14.399999999999885 756.3146262102152
14.429999999999884 772.2757551386067
14.459999999999884 781.5848766517092
14.489999999999883 783.3839794894991
14.519999999999882 777.6579614185484
14.549999999999882 765.2087213785151
14.579999999999881 747.5440652894918
14.60999999999988 726.6912316218068
14.63999999999988 704.958092510107
14.66999999999988 684.6699898821115
14.699999999999878 667.915384549707
14.729999999999878 656.325595257587
14.759999999999877 650.9110981770905
14.789999999999877 651.9710640028802
14.819999999999876 659.0853568565551
14.849999999999875 671.1867781861712
14.879999999999875 686.7020829165473
14.909999999999874 703.7451344852753
14.939999999999873 720.3378460773006
14.969999999999873 734.6335327388458
14.999999999999872 745.1161625190881
15.029999999999871 750.755137375534
15.05999999999987 751.1020912786414
15.08999999999987 746.3170094098099
15.11999999999987 737.1267108417835
15.149999999999869 724.7212641443745
15.179999999999868 710.6028153132263
15.209999999999868 696.4039290217266
15.239999999999867 683.6978478896472
15.269999999999866 673.8249952336931
15.299999999999866 667.7536655338215
15.329999999999865 665.9871301056522
15.359999999999864 668.5272768967604
15.389999999999864 674.896262055995
15.419999999999863 684.2086753467756
15.449999999999863 695.2897344690734
15.479999999999862 706.82015027436
15.509999999999861 717.4906684589434
15.53999999999986 726.1482222781488
15.56999999999986 731.9196251766075
15.59999999999986 734.2952837425403
15.629999999999859 733.1679512340193
15.659999999999858 728.8257100184936
15.689999999999857 721.9007281028875
15.719999999999857 713.2820348638431
15.749999999999856 704.0025438183011
15.779999999999855 695.1162234729311
15.809999999999855 687.5781938687443
15.839999999999854 682.141931397187
15.869999999999854 679.283951388161
15.899999999999853 679.16301611434
15.929999999999852 681.6193213271183
15.959999999999852 686.2081813455723
15.989999999999851 692.2637073738501
16.01999999999985 698.9854723511537
16.04999999999985 705.5366805218152
16.079999999999853 711.1412560337902
16.109999999999854 715.1686890106813
16.139999999999855 717.1982161037596
16.169999999999856 717.0559070124712
16.199999999999857 714.8219245495321
16.22999999999986 710.8068643859767
16.25999999999986 705.506670029812
16.28999999999986 699.5381227745488
