# Results for "element" with Id # 145311 for search config "initial" at position: x0: -7.78947368421; y0: -31.7105263158; z0: 167.6667
# time PRESSURE
0.03 1358.5985503988295
0.06 3885.0946817076992
0.09 7296.944257073109
0.12 11245.93749086367
0.15 15350.902474172259
0.18 19232.50694423508
0.21 22546.811433162628
0.24 25014.740044563714
0.27 26445.045614248735
0.30000000000000004 26748.844268265184
0.33000000000000007 25944.464315586047
0.3600000000000001 24152.204874057134
0.3900000000000001 21579.583506778774
0.42000000000000015 18498.64492212198
0.4500000000000002 15217.761813270326
0.4800000000000002 12050.935099465838
0.5100000000000002 9287.795842407924
0.5400000000000003 7167.301013417317
0.5700000000000003 5857.553429577743
0.6000000000000003 5443.377186031631
0.6300000000000003 5922.374098939763
0.6600000000000004 7209.3103493800045
0.6900000000000004 9147.917544637756
0.7200000000000004 11528.607914498964
0.7500000000000004 14110.19924104864
0.7800000000000005 16643.528174141196
0.8100000000000005 18894.781155073797
0.8400000000000005 20666.481519795834
0.8700000000000006 21814.3328629393
0.9000000000000006 22258.518647808418
0.9300000000000006 21988.583677362385
0.9600000000000006 21061.6257013406
0.9900000000000007 19594.167290058274
1.0200000000000007 17748.677130838765
1.0500000000000007 15716.22214731087
1.0800000000000007 13697.076813737602
1.1100000000000008 11881.26547929666
1.1400000000000008 10430.944607616217
1.1700000000000008 9466.259364804919
1.2000000000000008 9055.878868005566
1.2300000000000009 9212.880023317019
1.260000000000001 9896.092834496138
1.290000000000001 11016.491925000619
1.320000000000001 12447.776819404406
1.350000000000001 14039.954150321351
1.380000000000001 15634.531129029716
1.410000000000001 17079.85484438986
1.440000000000001 18245.178889396117
1.470000000000001 19032.200498195463
1.500000000000001 19383.07261753842
1.5300000000000011 19284.247653158574
1.5600000000000012 18765.915467068
1.5900000000000012 17897.230330972903
1.6200000000000012 16777.94206092659
1.6500000000000012 15527.382399472028
1.6800000000000013 14272.006877787284
1.7100000000000013 13132.793844794453
1.7400000000000013 12213.760814421657
1.7700000000000014 11592.684714696987
1.8000000000000014 11314.833389601816
1.8300000000000014 11390.166732297044
1.8600000000000014 11794.098567169107
1.8900000000000015 12471.554425523198
1.9200000000000015 13343.760307830047
1.9500000000000015 14316.973747106758
1.9800000000000015 15292.226943259062
2.0100000000000016 16175.107962410202
2.0400000000000014 16884.649529172446
2.070000000000001 17360.520202010885
2.100000000000001 17567.903034204104
2.130000000000001 17499.691708406055
2.1600000000000006 17175.899501520988
2.1900000000000004 16640.453969956394
2.22 15955.797243737652
2.25 15195.91307200902
2.28 14438.537365633065
2.3099999999999996 13757.358839981018
2.3399999999999994 13214.984269376222
2.369999999999999 12857.330288174657
2.399999999999999 12709.931088785732
2.429999999999999 12776.433050614083
2.4599999999999986 13039.319361671098
2.4899999999999984 13462.680884757125
2.5199999999999982 13996.659357984287
2.549999999999998 14583.044280382324
2.579999999999998 15161.416019028595
2.6099999999999977 15675.205393127548
2.6399999999999975 16077.077071977012
2.6699999999999973 16333.13822792692
2.699999999999997 16425.612432673533
2.729999999999997 16353.785878358696
2.7599999999999967 16133.214281507104
2.7899999999999965 15793.353124260058
2.8199999999999963 15373.924682662535
2.849999999999996 14920.44653188795
2.879999999999996 14479.411804467378
2.9099999999999957 14093.620893279343
2.9399999999999955 13798.124108566015
2.9699999999999953 13617.14894024949
2.999999999999995 13562.266520952377
3.029999999999995 13631.915200132647
3.0599999999999947 13812.255524505648
3.0899999999999945 14079.201692038867
3.1199999999999943 14401.3641103384
3.149999999999994 14743.563301537091
3.179999999999994 15070.534894427368
3.2099999999999937 15350.447189154605
3.2399999999999936 15557.890061276
3.2699999999999934 15676.064163059931
3.299999999999993 15697.993091518703
3.329999999999993 15626.687114224671
3.3599999999999928 15474.297861306606
3.3899999999999926 15260.400979204684
3.4199999999999924 15009.627112230672
3.449999999999992 14748.914063061533
3.479999999999992 14504.678241855232
3.509999999999992 14300.195238340179
3.5399999999999916 14153.441775243129
3.5699999999999914 14075.591093569772
3.599999999999991 14070.277300119073
3.629999999999991 14133.658865588653
3.659999999999991 14255.22996460793
3.6899999999999906 14419.256058200412
3.7199999999999904 14606.65348399259
3.7499999999999902 14797.09914889856
3.77999999999999 14971.144463710754
3.80999999999999 15112.120385538481
3.8399999999999896 15207.653550428975
3.8699999999999894 15250.662337020458
3.8999999999999893 15239.761453164578
3.929999999999989 15179.068653602355
3.959999999999989 15077.466763577124
3.9899999999999887 14947.42727874741
4.019999999999989 14803.540379076388
4.049999999999989 14660.916999141657
4.079999999999989 14533.632947632032
4.10999999999999 14433.370186381322
4.13999999999999 14368.381534719349
4.16999999999999 14342.864342750356
4.19999999999999 14356.782116018205
4.229999999999991 14406.125258820373
4.259999999999991 14483.558581794963
4.289999999999991 14579.365805415211
4.319999999999991 14682.57744990352
4.349999999999992 14782.156902523113
4.379999999999992 14868.120376187617
4.409999999999992 14932.481253191665
4.439999999999992 14969.933777422846
4.469999999999993 14978.222551154568
4.499999999999993 14958.179790334178
4.529999999999993 14913.44754627511
4.559999999999993 14849.932209601211
4.589999999999994 14775.063723604655
4.619999999999994 14696.947294403893
4.649999999999994 14623.500199900644
4.679999999999994 14561.66223126774
4.709999999999995 14516.756019780241
4.739999999999995 14492.052244577597
4.769999999999995 14488.570886979398
4.799999999999995 14505.123462429952
4.829999999999996 14538.577166152487
4.859999999999996 14584.298882449279
4.889999999999996 14636.722326277779
4.919999999999996 14689.972638864147
4.949999999999997 14738.481103277485
4.979999999999997 14777.52859201073
5.009999999999997 14803.666938748558
5.039999999999997 14814.982784924032
5.069999999999998 14811.189424571423
5.099999999999998 14793.547378766203
5.129999999999998 14764.632853200841
5.159999999999998 14727.98888391137
5.189999999999999 14687.701982824878
5.219999999999999 14647.952278207136
5.249999999999999 14612.584859284201
5.279999999999999 14584.744987292588
5.31 14566.60882035609
5.34 14559.228923147664
5.37 14562.505778149072
5.4 14575.2781027991
5.430000000000001 14595.512694337158
5.460000000000001 14620.569759390273
5.490000000000001 14647.511421469075
5.520000000000001 14673.417689966027
5.550000000000002 14695.678670136054
5.580000000000002 14712.236539674941
5.610000000000002 14721.753377847395
5.640000000000002 14723.694389172699
5.670000000000003 14718.325014453047
5.700000000000003 14706.62808182532
5.730000000000003 14690.154616208642
5.760000000000003 14670.828233452356
5.790000000000004 14650.725762781645
5.820000000000004 14631.858064746928
5.850000000000004 14615.973792763074
5.880000000000004 14604.403829767989
5.910000000000005 14597.95909988556
5.940000000000005 14596.88704981167
5.970000000000005 14600.887459203126
6.000000000000005 14609.181369542544
6.030000000000006 14620.623570318325
6.060000000000006 14633.843162395673
6.090000000000006 14647.39606906864
6.120000000000006 14659.912883763775
6.150000000000007 14670.229461037985
6.180000000000007 14677.487586289162
6.210000000000007 14681.19653412369
6.240000000000007 14681.255749180851
6.270000000000008 14677.93618608006
6.300000000000008 14671.826133380398
6.330000000000008 14663.751189508857
6.360000000000008 14654.676538308096
6.390000000000009 14645.601518157431
6.420000000000009 14637.460358439712
6.450000000000009 14631.036664544517
6.480000000000009 14626.897047759625
6.51000000000001 14625.350519060989
6.54000000000001 14626.439054033988
6.57000000000001 14629.951444551154
6.60000000000001 14635.46119052813
6.6300000000000106 14642.382713226605
6.660000000000011 14650.039257646331
6.690000000000011 14657.735470169278
6.720000000000011 14664.826149657129
6.7500000000000115 14670.775052951001
6.780000000000012 14675.198354242852
6.810000000000012 14677.890276336564
6.840000000000012 14678.830078845236
6.8700000000000125 14678.172594234975
6.900000000000013 14676.222888870234
6.930000000000013 14673.396586879633
6.960000000000013 14670.172492349275
6.9900000000000135 14667.042845159858
7.020000000000014 14664.4653208333
7.050000000000014 14662.821530125824
7.080000000000014 14662.38511374295
7.1100000000000145 14663.302427459777
7.140000000000015 14665.586451610166
7.170000000000015 14669.122747592091
7.200000000000015 14673.687357558912
7.2300000000000155 14678.973903465776
7.260000000000016 14684.626920270715
7.290000000000016 14690.277940344475
7.320000000000016 14695.580862212832
7.3500000000000165 14700.243328662831
7.380000000000017 14704.051625358756
7.410000000000017 14706.886580598684
7.440000000000017 14708.72979210502
7.4700000000000175 14709.659521273545
7.500000000000018 14709.837854756475
7.530000000000018 14709.490578532954
7.560000000000018 14708.882050883782
7.5900000000000185 14708.287753973924
7.620000000000019 14707.96717622704
7.650000000000019 14708.138883659583
7.680000000000019 14708.960456568035
7.7100000000000195 14710.515649835292
7.74000000000002 14712.809260910448
7.77000000000002 14715.769855710198
7.80000000000002 14719.259840573903
7.8300000000000205 14723.091041643005
7.860000000000021 14727.045331516545
7.890000000000021 14730.897577704118
7.920000000000021 14734.438315575486
7.9500000000000215 14737.493955168251
7.980000000000022 14739.94260454966
8.010000000000021 14741.724035026877
8.04000000000002 14742.843372730265
8.07000000000002 14743.3682747385
8.10000000000002 14743.41984407839
8.130000000000019 14743.158460582341
8.160000000000018 14742.766329267155
8.190000000000017 14742.428171731495
8.220000000000017 14742.312227162094
8.250000000000016 14742.553814620795
8.280000000000015 14743.242691038751
8.310000000000015 14744.415705146084
8.340000000000014 14746.054788162499
8.370000000000013 14748.090717944846
8.400000000000013 14750.412445464372
8.430000000000012 14752.879880663028
8.460000000000012 14755.339655370248
8.49000000000001 14757.641371328782
8.52000000000001 14759.654063708986
8.55000000000001 14761.279369680453
8.580000000000009 14762.460076807834
8.610000000000008 14763.184760169355
8.640000000000008 14763.487208895862
8.670000000000007 14763.44147290361
8.700000000000006 14763.152632501624
8.730000000000006 14762.745382178167
8.760000000000005 14762.350349233073
8.790000000000004 14762.089772074785
8.820000000000004 14762.064723348947
8.850000000000003 14762.345646101527
8.880000000000003 14762.966648641674
8.910000000000002 14763.923826629865
8.940000000000001 14765.177388444357
8.97 14766.657192683551
9.0 14768.272340623098
9.03 14769.923027281828
9.059999999999999 14771.512059799436
9.089999999999998 14772.956366739134
9.119999999999997 14774.1953429111
9.149999999999997 14775.19740599678
9.179999999999996 14775.963156018395
9.209999999999996 14776.524152536167
9.239999999999995 14776.938577243322
9.269999999999994 14777.284668486913
9.299999999999994 14777.651442622118
9.329999999999993 14778.128923375842
9.359999999999992 14778.79942933147
9.389999999999992 14779.730249349775
9.419999999999991 14780.966804119558
9.44999999999999 14782.527988939233
9.47999999999999 14784.405119957191
9.50999999999999 14786.564014114505
9.539999999999988 14788.950068040818
9.569999999999988 14791.49573542128
9.599999999999987 14794.129072063924
9.629999999999987 14796.781802925374
9.659999999999986 14799.39601387002
9.689999999999985 14801.928243998276
9.719999999999985 14804.35393585668
9.749999999999984 14806.66927668492
9.779999999999983 14808.891076505593
9.809999999999983 14811.052255063169
9.839999999999982 14813.195629302927
9.869999999999981 14815.367927884192
9.89999999999998 14817.613138783663
9.92999999999998 14819.969292043104
9.95999999999998 14822.463229582621
9.989999999999979 14825.105635957349
10.019999999999978 13620.546862876847
10.049999999999978 10833.473090756532
10.079999999999977 6907.898099213716
10.109999999999976 2395.1536095839756
10.139999999999976 -2118.81665133101
10.169999999999975 -6087.570499341622
10.199999999999974 -9068.27579540374
10.229999999999974 -10768.07501780533
10.259999999999973 -11068.52236383573
10.289999999999973 -10027.109166822973
10.319999999999972 -7857.735101225799
10.349999999999971 -4894.112815932958
10.37999999999997 -1541.6972722595835
10.40999999999997 1775.4377397735675
10.43999999999997 4666.232550395495
10.469999999999969 6816.877595406038
10.499999999999968 8022.952440304427
10.529999999999967 8206.432784269366
10.559999999999967 7416.437463273194
10.589999999999966 5814.666856918206
10.619999999999965 3648.21590989315
10.649999999999965 1213.9127419959486
10.679999999999964 -1180.8638897199023
10.709999999999964 -3255.8111287821794
10.739999999999963 -4789.245992959253
10.769999999999962 -5640.159229955657
10.799999999999962 -5758.858377739591
10.829999999999961 -5185.835301591561
10.85999999999996 -4040.0172620716125
10.88999999999996 -2498.663119023858
10.919999999999959 -771.9967342778432
10.949999999999958 924.0231401032961
10.979999999999958 2393.4629460713313
11.009999999999957 3481.820217724424
11.039999999999957 4090.9032974853276
11.069999999999956 4185.960989693452
11.099999999999955 3794.80526039247
11.129999999999955 2999.666883423648
11.159999999999954 1923.2878409065593
11.189999999999953 711.3751128898625
11.219999999999953 -486.2285749628104
11.249999999999952 -1533.3267587817027
11.279999999999951 -2322.093708407402
11.30999999999995 -2783.2640261749452
11.33999999999995 -2890.9884257063454
11.36999999999995 -2662.242025976334
11.399999999999949 -2151.316340541264
11.429999999999948 -1440.4571490303795
11.459999999999948 -628.0805605252946
11.489999999999947 183.87495264025637
11.519999999999946 901.9393874775335
11.549999999999946 1451.1158066597009
11.579999999999945 1781.9038251029347
11.609999999999944 1873.8126309221961
11.639999999999944 1735.2299761639242
11.669999999999943 1399.99523323542
11.699999999999942 921.365828152803
11.729999999999942 364.29757845595884
11.759999999999941 -202.92573344627573
11.78999999999994 -716.711106168256
11.81999999999994 -1124.924409808032
11.84999999999994 -1391.7702355632498
11.879999999999939 -1500.3859600232897
11.909999999999938 -1453.0650063327041
11.939999999999937 -1269.2988143182627
11.969999999999937 -982.0595486181551
11.999999999999936 -632.9052431487772
12.029999999999935 -266.568710550984
12.059999999999935 74.31475260314612
12.089999999999934 353.7560638555543
12.119999999999933 545.7969758791342
12.149999999999933 636.4595975769531
12.179999999999932 624.1840177621376
12.209999999999932 518.8499019911844
12.239999999999931 339.6299197429725
12.26999999999993 112.02704331735144
12.29999999999993 -135.49932157559718
12.329999999999929 -374.9098038060833
12.359999999999928 -581.5910011671551
12.389999999999928 -736.6997765611586
12.419999999999927 -828.654323512483
12.449999999999926 -853.6946019246226
12.479999999999926 -815.5415037316004
12.509999999999925 -724.2861813112622
12.539999999999925 -594.7073357310545
12.569999999999924 -444.250931207308
12.599999999999923 -290.9299046820557
12.629999999999923 -151.37446107031676
12.659999999999922 -39.2252553324472
12.689999999999921 35.997195693237785
12.71999999999992 69.47683797044805
12.74999999999992 61.139019633674145
12.77999999999992 15.194865057216347
12.809999999999919 -60.70509632474898
12.839999999999918 -156.58211045861142
12.869999999999918 -261.3623624289886
12.899999999999917 -364.09607103905057
12.929999999999916 -455.04247944747556
12.959999999999916 -526.5261551111381
12.989999999999915 -573.50553018894
13.019999999999914 -593.8276361160031
13.049999999999914 -588.1746403042914
13.079999999999913 -559.7419039814461
13.109999999999912 -513.7052540681321
13.139999999999912 -456.55035441033203
13.169999999999911 -395.3406102777684
13.19999999999991 -336.99774194089287
13.22999999999991 -287.66041052562616
13.25999999999991 -252.17135233572353
13.289999999999909 -233.72761128402095
13.319999999999908 -233.70686607126854
13.349999999999907 -251.6705489223387
13.379999999999907 -285.5348295091227
13.409999999999906 -331.8766977301387
13.439999999999905 -386.3338726373135
13.469999999999905 -444.06595591829995
13.499999999999904 -500.230942386636
13.529999999999903 -550.4316097418887
13.559999999999903 -591.0958694962203
13.589999999999902 -619.7631392684975
13.619999999999902 -635.2551851370999
13.6499999999999 -637.7228893429208
13.6799999999999 -628.5675776316212
13.7099999999999 -610.2496943575118
13.739999999999899 -586.0044940452977
13.769999999999898 -559.4978778225519
13.799999999999898 -534.454610393404
13.829999999999897 -514.2907463614384
13.859999999999896 -501.7901342371794
13.889999999999896 -498.8517471143064
13.919999999999895 -506.3261603808783
13.949999999999894 -523.961395592704
13.979999999999894 -550.4622964740619
14.009999999999893 -583.6509595587981
14.039999999999893 -620.708360182844
14.069999999999892 -658.4805001369008
14.099999999999891 -693.8137740244902
14.12999999999989 -723.8764412484724
14.15999999999989 -746.4439327325904
14.18999999999989 -760.1109810092128
14.219999999999889 -764.4149551305807
14.249999999999888 -759.8570555063212
14.279999999999887 -747.823437421872
14.309999999999887 -730.4146284203524
14.339999999999886 -710.2058085938866
14.369999999999886 -689.9570852131814
14.399999999999885 -672.3127625451173
14.429999999999884 -659.5256795295716
14.459999999999884 -653.2237663823234
14.489999999999883 -654.2520737581729
14.519999999999882 -662.6082887795783
14.549999999999882 -677.4753666834379
14.579999999999881 -697.3330157846334
14.60999999999988 -720.1456499492793
14.63999999999988 -743.6020683510405
14.66999999999988 -765.3819625381414
14.699999999999878 -783.4040861898627
14.729999999999878 -796.0427663342664
14.759999999999877 -802.2902397330336
14.789999999999877 -801.8493080238168
14.819999999999876 -795.1431434839785
14.849999999999875 -783.2412606084375
14.879999999999875 -767.7178581846539
14.909999999999874 -750.4560037542773
14.939999999999873 -733.4274858769054
14.969999999999873 -718.471574651118
14.999999999999872 -707.0973646989266
15.029999999999871 -700.3313904176398
15.05999999999987 -698.6186918083066
15.08999999999987 -701.7980019260951
15.11999999999987 -709.1416190108168
15.149999999999869 -719.4578851883372
15.179999999999868 -731.2427180092577
15.209999999999868 -742.8643069362355
15.239999999999867 -752.7574831417892
15.269999999999866 -759.5927206022664
15.299999999999866 -762.4096042008224
15.329999999999865 -760.7086933882636
15.359999999999864 -754.4877810109102
15.389999999999864 -744.2212626811873
15.419999999999863 -730.7970227570263
15.449999999999863 -715.3987281777017
15.479999999999862 -699.3607359710752
15.509999999999861 -684.0104968932794
15.53999999999986 -670.5203343599705
15.56999999999986 -659.7799974986789
15.59999999999986 -652.3145945860816
15.629999999999859 -648.2484051266076
15.659999999999858 -647.3124615027272
15.689999999999857 -648.8940253508281
15.719999999999857 -652.1217512594326
15.749999999999856 -655.9791487705306
15.779999999999855 -659.426149433644
15.809999999999855 -661.5224840280723
15.839999999999854 -661.5280555325032
15.869999999999854 -658.9747086877289
15.899999999999853 -653.7064336112674
15.929999999999852 -645.8804953322831
15.959999999999852 -635.9327367075675
15.989999999999851 -624.5168019862787
16.01999999999985 -612.4208386572117
16.04999999999985 -600.4705819555002
16.079999999999853 -589.4317189733788
16.109999999999854 -579.9241089494051
16.139999999999855 -572.3563339225233
16.169999999999856 -566.8898629520722
