# Results for "element" with Id # 1860477 for search config "initial" at position: x0: -20.5473684211; y0: -18.9526315789; z0: 167.6667
# time PRESSURE
0.03 1369.1082803821064
0.06 3915.270565064101
0.09 7353.872270659418
0.12 11334.090041056577
0.15 15471.801387780579
0.18 19384.609701258574
0.21 22725.641685547744
0.24 25213.28516711302
0.27 26654.42746227703
0.30000000000000004 26959.23020932201
0.33000000000000007 26146.134116010588
0.3600000000000001 24336.642700477292
0.3900000000000001 21740.44194242324
0.42000000000000015 18632.437909569875
0.4500000000000002 15324.18580742709
0.4800000000000002 12132.781136671427
0.5100000000000002 9350.483397151515
0.5400000000000003 7218.121103430718
0.5700000000000003 5904.7420884966505
0.6000000000000003 5495.148070581507
0.6300000000000003 5986.024150165324
0.6600000000000004 7290.487234511724
0.6900000000000004 9250.106272261548
0.7200000000000004 11652.870674893322
0.7500000000000004 14255.181717575051
0.7800000000000005 16805.72727600716
0.8100000000000005 19069.047615668325
0.8400000000000005 20846.704240763218
0.8700000000000006 21994.223771370125
0.9000000000000006 22432.394449368203
0.9300000000000006 22152.03525259278
0.9600000000000006 21211.97928075605
0.9900000000000007 19730.67985980952
1.0200000000000007 17872.45417833463
1.0500000000000007 15829.894592844745
1.0800000000000007 13804.309667462257
1.1100000000000008 11986.188331836187
1.1400000000000008 10537.593038519348
1.1700000000000008 9578.100872054245
1.2000000000000008 9175.474405997285
1.2300000000000009 9341.705879816065
1.260000000000001 10034.525062408902
1.290000000000001 11163.932256521868
1.320000000000001 12602.884423348733
1.350000000000001 14200.9361498807
1.380000000000001 15799.441641129957
1.410000000000001 17246.856887000496
1.440000000000001 18412.735585704304
1.470000000000001 19199.179595736947
1.500000000000001 19548.766484910233
1.5300000000000011 19448.327634639034
1.5600000000000012 18928.3484627488
1.5900000000000012 18058.18774145064
1.6200000000000012 16937.725861213905
1.6500000000000012 15686.381857738183
1.6800000000000013 14430.686615330469
1.7100000000000013 13291.701905147409
1.7400000000000013 12373.539950319555
1.7700000000000014 11754.069374490153
1.8000000000000014 11478.621332605806
1.8300000000000014 11557.16162167058
1.8600000000000014 11965.030892800969
1.8900000000000015 12646.99471600656
1.9200000000000015 13524.042395003642
1.9500000000000015 14502.144772467153
1.9800000000000015 15482.03542998459
2.0100000000000016 16369.033530669367
2.0400000000000014 17081.969662548858
2.070000000000001 17560.402844678625
2.100000000000001 17769.509460160418
2.130000000000001 17702.27406150267
2.1600000000000006 17378.879385367
2.1900000000000004 16843.473794184672
2.22 16158.741706104658
2.25 15398.902800811327
2.28 14641.900697180294
2.3099999999999996 13961.58871617159
2.3399999999999994 13420.687064563183
2.369999999999999 13065.171567052646
2.399999999999999 12920.581652155426
2.429999999999999 12990.516888506674
2.4599999999999986 13257.365121337072
2.4899999999999984 13685.078762587691
2.5199999999999982 14223.62623600605
2.549999999999998 14814.601395847929
2.579999999999998 15397.383323571736
2.6099999999999977 15915.21612850128
2.6399999999999975 16320.613856890948
2.6699999999999973 16579.588901536245
2.699999999999997 16674.34046264948
2.729999999999997 16604.206966891456
2.7599999999999967 16384.86877864191
2.7899999999999965 16045.963824407954
2.8199999999999963 15627.431507153102
2.849999999999996 15175.012676427843
2.879999999999996 14735.400716532644
2.9099999999999957 14351.547848326974
2.9399999999999955 14058.590033343506
2.9699999999999953 13880.766412312001
2.999999999999995 13829.58833670933
3.029999999999995 13903.374825366373
3.0599999999999947 14088.126247450356
3.0899999999999945 14359.578040192859
3.1199999999999943 14686.165612174336
3.149999999999994 15032.558154588107
3.179999999999994 15363.37872396304
3.2099999999999937 15646.731037932908
3.2399999999999936 15857.191402157921
3.2699999999999934 15977.995191065023
3.299999999999993 16002.241561552846
3.329999999999993 15933.04613188313
3.3599999999999928 15782.682554897932
3.3899999999999926 15570.851314419855
3.4199999999999924 15322.297618595912
3.449999999999992 15064.05219268028
3.479999999999992 14822.594222450076
3.509999999999992 14621.226995834233
3.5399999999999916 14477.918793659126
3.5699999999999914 14403.801073575076
3.599999999999991 14402.439120885816
3.629999999999991 14469.904440048136
3.659999999999991 14595.596434661884
3.6899999999999906 14763.688797644474
3.7199999999999904 14955.018763432503
3.7499999999999902 15149.20462829715
3.77999999999999 15326.764840292919
3.80999999999999 15471.024994418169
3.8399999999999896 15569.632782942881
3.8699999999999894 15615.550123082257
3.8999999999999893 15607.451567292963
3.929999999999989 15549.523467726422
3.959999999999989 15450.718068752485
3.9899999999999887 15323.569515139126
4.019999999999989 15182.717540235548
4.049999999999989 15043.304978005925
4.079999999999989 14919.419458888793
4.10999999999999 14822.734584844646
4.13999999999999 14761.476605813126
4.16999999999999 14739.801963809725
4.19999999999999 14757.624267355332
4.229999999999991 14810.880857718766
4.259999999999991 14892.186284276508
4.289999999999991 14991.782019871885
4.319999999999991 15098.668437675764
4.349999999999992 15201.793361393582
4.379999999999992 15291.172764913106
4.409999999999992 15358.83415408897
4.439999999999992 15399.497753881487
4.469999999999993 15410.942451120682
4.499999999999993 15394.038809052538
4.529999999999993 15352.466808442801
4.559999999999993 15292.166130028685
4.589999999999994 15220.591956766442
4.619999999999994 15145.864157316391
4.649999999999994 15075.903088089188
4.679999999999994 15017.64041216723
4.709999999999995 14976.380923558385
4.739999999999995 14955.370253164809
4.769999999999995 14955.599343839262
4.799999999999995 14975.850144986423
4.829999999999996 15012.962969014454
4.859999999999996 15062.283156327796
4.889999999999996 15118.230203030682
4.919999999999996 15174.923420090614
4.949999999999997 15226.796779914548
4.979999999999997 15269.141504675683
5.009999999999997 15298.525749306855
5.039999999999997 15313.056411739995
5.069999999999998 15312.467988662625
5.099999999999998 15298.04066164318
5.129999999999998 15272.366717246392
5.159999999999998 15239.000141152574
5.189999999999999 15202.032375585952
5.219999999999999 15165.64239599343
5.249999999999999 15133.668489663298
5.279999999999999 15109.244226521125
5.31 15094.530611856333
5.34 15090.564188882767
5.37 15097.230046308414
5.4 15113.353383213951
5.430000000000001 15136.891020584382
5.460000000000001 15165.197664704501
5.490000000000001 15195.334421985433
5.520000000000001 15224.384926429979
5.550000000000002 15249.747165161516
5.580000000000002 15269.373566663637
5.610000000000002 15281.937447729098
5.640000000000002 15286.915143062904
5.670000000000003 15284.581716817936
5.700000000000003 15275.926959568396
5.730000000000003 15262.50562435749
5.760000000000003 15246.241419564722
5.790000000000004 15229.207878858386
5.820000000000004 15213.410037738451
5.850000000000004 15200.588922696126
5.880000000000004 15192.066758285495
5.910000000000005 15188.645543988867
5.940000000000005 15190.5646268509
5.970000000000005 15197.517389561557
6.000000000000005 15208.720997940945
6.030000000000006 15223.028942045039
6.060000000000006 15239.071340909015
6.090000000000006 15255.407094266739
6.120000000000006 15270.671559009541
6.150000000000007 15283.705979756727
6.180000000000007 15293.657038859994
6.210000000000007 15300.038486669215
6.240000000000007 15302.752548359525
6.270000000000008 15302.071179480663
6.300000000000008 15298.582573273756
6.330000000000008 15293.110687991293
6.360000000000008 15286.617473186387
6.390000000000009 15280.0984066575
6.420000000000009 15274.482866522792
6.450000000000009 15270.548745040698
6.480000000000009 15268.857401627567
6.51000000000001 15269.714116436338
6.54000000000001 15273.157301270701
6.57000000000001 15278.973430299979
6.60000000000001 15286.7354661139
6.6300000000000106 15295.859132041216
6.660000000000011 15305.670289707788
6.690000000000011 15315.476487915304
6.720000000000011 15324.635084740003
6.7500000000000115 15332.61167929766
6.780000000000012 15339.023628673462
6.810000000000012 15343.66616598266
6.840000000000012 15346.51956189172
6.8700000000000125 15347.738849826026
6.900000000000013 15347.627924740907
6.930000000000013 15346.600458041321
6.960000000000013 15345.133256391
6.9900000000000135 15343.716935996674
7.020000000000014 15342.808186467562
7.050000000000014 15342.788612315326
7.080000000000014 15343.932870269753
7.1100000000000145 15346.38903678616
7.140000000000015 15350.17232506576
7.170000000000015 15355.171209211712
7.200000000000015 15361.165408936798
7.2300000000000155 15367.85296660666
7.260000000000016 15374.88338690204
7.290000000000016 15381.893446140653
7.320000000000016 15388.542327827738
7.3500000000000165 15394.542721979524
7.380000000000017 15399.685465589388
7.410000000000017 15403.855298238313
7.440000000000017 15407.037119453898
7.4700000000000175 15409.312197791425
7.500000000000018 15410.845510238145
7.530000000000018 15411.865712268835
7.560000000000018 15412.640063353512
7.5900000000000185 15413.446866372125
7.620000000000019 15414.548109842692
7.650000000000019 15416.164810247594
7.680000000000019 15418.457171929487
7.7100000000000195 15421.511602752398
7.74000000000002 15425.335388269928
7.77000000000002 15429.859406029562
7.80000000000002 15434.947948257653
7.8300000000000205 15440.414403563893
7.860000000000021 15446.0416863352
7.890000000000021 15451.605084726238
7.920000000000021 15456.894862877161
7.9500000000000215 15461.736526455723
7.980000000000022 15466.00675977975
8.010000000000021 15469.64375789971
8.04000000000002 15472.65097511321
8.07000000000002 15475.09424186125
8.10000000000002 15477.092882595989
8.130000000000019 15478.805779963013
8.160000000000018 15480.413853658129
8.190000000000017 15482.100824490564
8.220000000000017 15484.034264109183
8.250000000000016 15486.3490194603
8.280000000000015 15489.134609968442
8.310000000000015 15492.427777258454
8.340000000000014 15496.210585136403
8.370000000000013 15500.414175667316
8.400000000000013 15504.927786546708
8.430000000000012 15509.611572081452
8.460000000000012 15514.312271597732
8.49000000000001 15518.8796252403
8.52000000000001 15523.182332355014
8.55000000000001 15527.121189293757
8.580000000000009 15530.63812999588
8.610000000000008 15533.720895752876
8.640000000000008 15536.402553574691
8.670000000000007 15538.756406726425
8.700000000000006 15540.88679417283
8.730000000000006 15542.917062476692
8.760000000000005 15544.97578197184
8.790000000000004 15547.182946398332
8.820000000000004 15549.637370235767
8.850000000000003 15552.40705195623
8.880000000000003 15555.523215982324
8.910000000000002 15558.97853445774
8.940000000000001 15562.729459672011
8.97 15566.702277213157
9.0 15570.8024655959
9.03 15574.926002842318
9.059999999999999 15578.971102496353
9.089999999999998 15582.849391501799
9.119999999999997 15586.494919418023
9.149999999999997 15589.871013891474
9.179999999999996 15592.973373428234
9.209999999999996 15595.829097049285
9.239999999999995 15598.492472803679
9.269999999999994 15601.038266261483
9.299999999999994 15603.552884436376
9.329999999999993 15606.124481695782
9.359999999999992 15608.833663307178
9.389999999999992 15611.745504921688
9.419999999999991 15614.903106950223
9.44999999999999 15618.32367356386
9.47999999999999 15621.99775584269
9.50999999999999 15625.891404268164
9.539999999999988 15629.951099614318
9.569999999999988 15634.110755540692
9.599999999999987 15638.300007218633
9.629999999999987 15642.452244411717
9.659999999999986 15646.511413013293
9.689999999999985 15650.437199188724
9.719999999999985 15654.208973467965
9.749999999999984 15657.827339660991
9.779999999999983 15661.313520652975
9.809999999999983 15664.70531735411
9.839999999999982 15668.051516267235
9.869999999999981 15671.405685001122
9.89999999999998 15674.819683618956
9.92999999999998 15678.338416985407
9.95999999999998 15681.994801705376
9.989999999999979 15685.806118565346
10.019999999999978 14466.082485670937
10.049999999999978 11645.701409127709
10.079999999999977 7678.273705137483
10.109999999999976 3123.2312163847428
10.139999999999976 -1428.0147995966959
10.169999999999975 -5426.054388015656
10.199999999999974 -8426.95656250613
10.229999999999974 -10138.04272853063
10.259999999999973 -10441.9169280292
10.289999999999973 -9397.70438481905
10.319999999999972 -7221.257399140273
10.349999999999971 -4248.312746387905
10.37999999999997 -886.2224729453965
10.40999999999997 2439.2854598740905
10.43999999999997 5335.802280331206
10.469999999999969 7488.516379068755
10.499999999999968 8692.407478396124
10.529999999999967 8869.331027608176
10.559999999999967 8068.835912428576
10.589999999999966 6453.607264687687
10.619999999999965 4272.182954443145
10.649999999999965 1823.092065642895
10.679999999999964 -584.5938539549123
10.709999999999964 -2669.1566679864227
10.739999999999963 -4207.988238771088
10.769999999999962 -5059.762357827805
10.799999999999962 -5175.087425850897
10.829999999999961 -4595.28387504293
10.85999999999996 -3440.473253963638
10.88999999999996 -1889.2707060861785
10.919999999999959 -153.20961755784077
10.949999999999958 1550.6714730997974
10.979999999999958 3025.7198544142857
11.009999999999957 4117.138148440787
11.039999999999957 4726.863971881705
11.069999999999956 4820.637159436136
11.099999999999955 4427.014033421234
11.129999999999955 3629.095187755038
11.159999999999954 2550.488085452859
11.189999999999953 1337.643174506606
11.219999999999953 140.9360311988369
11.249999999999952 -903.1636824361478
11.279999999999951 -1686.8278561973316
11.30999999999995 -2141.036483796802
11.33999999999995 -2240.3804337404836
11.36999999999995 -2002.3925506182961
11.399999999999949 -1481.9674668247362
11.429999999999948 -761.9256946360524
11.459999999999948 58.84184241075648
11.489999999999947 878.0771062646256
11.519999999999946 1602.1701931508178
11.549999999999946 2156.1603388259264
11.579999999999945 2490.739033283572
11.609999999999944 2585.7133646302173
11.639999999999944 2449.8305333983835
11.669999999999943 2117.308347270207
11.699999999999942 1641.7522071402082
11.729999999999942 1088.3933162338124
11.759999999999941 525.6840615606006
11.78999999999994 17.262549977988442
11.81999999999994 -384.81951869002626
11.84999999999994 -644.9559851148985
11.879999999999939 -746.5478110474965
11.909999999999938 -692.187233937254
11.939999999999937 -501.6587414675893
11.969999999999937 -208.18306538694523
11.999999999999936 146.50658328325386
12.029999999999935 517.5925581653433
12.059999999999935 862.4477952319369
12.089999999999934 1145.175492400625
12.119999999999933 1339.9742981717327
12.149999999999933 1433.0628514710236
12.179999999999932 1423.0895128608076
12.209999999999932 1320.127894032466
12.239999999999931 1143.5066253160949
12.26999999999993 918.8296700686208
12.29999999999993 674.5940406629716
12.329999999999929 438.81427431630425
12.359999999999928 236.02496857494623
12.389999999999928 84.95174595716549
12.419999999999927 -2.9612782288830886
12.449999999999926 -24.092193969172136
12.479999999999926 17.71692013836706
12.509999999999925 112.2866849118535
12.539999999999925 244.79375784522145
12.569999999999924 397.79378390633303
12.599999999999923 553.3189886409141
12.629999999999923 694.8205070241909
12.659999999999922 808.7629199931152
12.689999999999921 885.740778253136
12.71999999999992 921.0498971564648
12.74999999999992 914.7127849782264
12.77999999999992 871.0150947286016
12.809999999999919 797.6544669943432
12.839999999999918 704.6282441065753
12.869999999999918 603.002199212845
12.899999999999917 503.6966927019844
12.929999999999916 416.4089106566772
12.959999999999916 348.7650164544859
12.989999999999915 305.76045891212084
13.019999999999914 289.5130775583346
13.049999999999914 299.32175675639894
13.079999999999913 331.99088302101217
13.109999999999912 382.3629103132441
13.139999999999912 443.98612052309113
13.169999999999911 509.84129398196916
13.19999999999991 573.0544594660864
13.22999999999991 627.5319976668957
13.25999999999991 668.4683456792529
13.289999999999909 692.6923098364114
13.319999999999908 698.8376568962085
13.349999999999907 687.3381261390541
13.379999999999907 660.2587939441638
13.409999999999906 620.9931460872351
13.439999999999905 573.8640936521083
13.469999999999905 523.666394472963
13.499999999999904 475.19490634531746
13.529999999999903 432.80166359134057
13.559999999999903 400.01800769429605
13.589999999999902 379.26972483076037
13.619999999999902 371.7065838938021
13.6499999999999 377.1551187319943
13.6799999999999 394.1962775898957
13.7099999999999 420.35479241668156
13.739999999999899 452.3798700757666
13.769999999999898 486.5878150111573
13.799999999999898 519.2330721316999
13.829999999999897 546.8741850907736
13.859999999999896 566.6997172921972
13.889999999999896 576.7826546272872
13.919999999999895 576.2439424885076
13.949999999999894 565.308365501811
13.979999999999894 545.2478744878086
14.009999999999893 518.2223110956918
14.039999999999893 487.0348804181492
14.069999999999892 454.82945312808056
14.099999999999891 424.7576659343297
14.12999999999989 399.65577964545594
14.15999999999989 381.76038709472675
14.18999999999989 372.4935307769476
14.219999999999889 372.33698651727
14.249999999999888 380.80982006809137
14.279999999999887 396.5461480935246
14.309999999999887 417.46351661847666
14.339999999999886 441.0024417383037
14.369999999999886 464.4140517217469
14.399999999999885 485.05995891756197
14.429999999999884 500.6897285506879
14.459999999999884 509.6722487935452
14.489999999999883 511.1533083211221
14.519999999999882 505.12241003056715
14.549999999999882 492.3855178233952
14.579999999999881 474.4540670491269
14.60999999999988 453.3581111452854
14.63999999999988 431.40722782750004
14.66999999999988 410.926593682428
14.699999999999878 394.0038330637103
14.729999999999878 382.2695727979012
14.759999999999877 376.73397563773574
14.789999999999877 377.6958432156981
14.819999999999876 384.7343539632152
14.849999999999875 396.7816372474467
14.879999999999875 412.2639433083044
14.909999999999874 429.29541335394714
14.939999999999873 445.898964676609
14.969999999999873 460.2292785916414
14.999999999999872 470.77170810859184
15.029999999999871 476.49659050252455
15.05999999999987 476.9565312855717
15.08999999999987 472.3122296076923
15.11999999999987 463.29120791397577
15.149999999999869 451.08425236402536
15.179999999999868 437.1940264093244
15.209999999999868 423.25270351138425
15.239999999999867 410.8313394177786
15.269999999999866 401.2673148982039
15.299999999999866 395.52650079382556
15.329999999999865 394.11086804569993
15.359999999999864 397.02239350723374
15.389999999999864 403.7846813597083
15.419999999999863 413.5130497292014
15.449999999999863 425.0321819004339
15.479999999999862 437.02074402548806
15.509999999999861 448.1664659021853
15.53999999999986 457.3129257091897
15.56999999999986 463.5844404271194
15.59999999999986 466.4696019067496
15.629999999999859 465.8595199151088
15.659999999999858 462.04041053219396
15.689999999999857 455.6425831217757
15.719999999999857 447.5534339215472
15.749999999999856 438.8042195395678
15.779999999999855 430.4473186952965
15.809999999999855 423.4354177776687
15.839999999999854 418.5193412868838
15.869999999999854 416.17369620804254
15.899999999999853 416.5565204641649
15.929999999999852 419.5084363875251
15.959999999999852 424.5866921054135
15.989999999999851 431.12821424994456
16.01999999999985 438.3353207805982
16.04999999999985 445.3733467273585
16.079999999999853 451.4678458306574
16.109999999999854 455.98978137586596
16.139999999999855 458.52028808850275
16.169999999999856 458.88778017815235
16.199999999999857 457.175536421655
16.22999999999986 453.6968588727557
16.25999999999986 448.95018894857674
