# Results for "element" with Id # 2031009 for search config "initial" at position: x0: -26.9263157895; y0: -12.5736842105; z0: 167.6667
# time PRESSURE
0.03 1372.7502698662192
0.06 3925.6990592870507
0.09 7373.487192059269
0.12 11364.366425787732
0.15 15513.189126469691
0.18 19436.51898059079
0.21 22786.51555814209
0.24 25280.75655513776
0.27 26725.551790724632
0.30000000000000004 27030.776680056315
0.33000000000000007 26214.9097308438
0.3600000000000001 24399.816134113917
0.3900000000000001 21795.83155254818
0.42000000000000015 18678.72960802119
0.4500000000000002 15361.05392379405
0.4800000000000002 12160.897215694271
0.5100000000000002 9371.412842337357
0.5400000000000003 7234.123019343687
0.5700000000000003 5918.500289079791
0.6000000000000003 5509.4687110699015
0.6300000000000003 6003.535992764806
0.6600000000000004 7313.376353389034
0.6900000000000004 9279.908486796954
0.7200000000000004 11690.337228830802
0.7500000000000004 14300.226466572114
0.7800000000000005 16857.458372562436
0.8100000000000005 19125.88185796315
0.8400000000000005 20906.556224724816
0.8700000000000006 22054.753862481804
0.9000000000000006 22491.289590104447
0.9300000000000006 22207.28816155736
0.9600000000000006 21262.126890870604
0.9900000000000007 19774.96579244313
1.0200000000000007 17910.890939427547
1.0500000000000007 15863.218555142364
1.0800000000000007 13833.840445493806
1.1100000000000008 12013.61928029936
1.1400000000000008 10564.748226909927
1.1700000000000008 9606.695058214002
1.2000000000000008 9206.908099039469
1.2300000000000009 9376.918873579547
1.260000000000001 10073.922375113192
1.290000000000001 11207.385780636067
1.320000000000001 12649.804420840965
1.350000000000001 14250.397934836723
1.380000000000001 15850.345790192368
1.410000000000001 17298.097143245675
1.440000000000001 18463.34838005325
1.470000000000001 19248.453596232805
1.500000000000001 19596.298783642724
1.5300000000000011 19494.024235295477
1.5600000000000012 18972.377077662706
1.5900000000000012 18100.89892818078
1.6200000000000012 16979.56244344146
1.6500000000000012 15727.795357801384
1.6800000000000013 14472.074708179764
1.7100000000000013 13333.373912668749
1.7400000000000013 12415.710114978667
1.7700000000000014 11796.871613733438
1.8000000000000014 11522.135876420096
1.8300000000000014 11601.442938010365
1.8600000000000014 12010.128403528539
1.8900000000000015 12692.961130767062
1.9200000000000015 13570.928677923708
1.9500000000000015 14549.98468523874
1.9800000000000015 15530.825231025621
2.0100000000000016 16418.71345538809
2.0400000000000014 17132.41326662334
2.070000000000001 17611.418403335705
2.100000000000001 17820.854661588677
2.130000000000001 17753.682410530855
2.1600000000000006 17430.094009429053
2.1900000000000004 16894.282841189237
2.22 16209.00922679191
2.25 15448.589746512876
2.28 14691.07270709128
2.3099999999999996 14010.409568083778
2.3399999999999994 13469.399158750433
2.369999999999999 13114.066618003542
2.399999999999999 12969.966048812094
2.429999999999999 13040.676421734985
2.4599999999999986 13308.533515915442
2.4899999999999984 13737.413560067505
2.5199999999999982 14277.194290653739
2.549999999999998 14869.375124688318
2.579999999999998 15453.247473230245
2.6099999999999977 15971.983866355891
2.6399999999999975 16378.050063281564
2.6699999999999973 16637.437953500226
2.699999999999997 16732.35545669877
2.729999999999997 16662.177178567603
2.7599999999999967 16442.642404924292
2.7899999999999965 16103.463519710605
2.8199999999999963 15684.661121004114
2.849999999999996 15232.054500222122
2.879999999999996 14792.40379811024
2.9099999999999957 14408.708941861973
2.9399999999999955 14116.129707892193
2.9699999999999953 13938.903361531859
2.999999999999995 13888.515034869775
3.029999999999995 13963.237426717686
3.0599999999999947 14149.010887367553
3.0899999999999945 14421.504846643807
3.1199999999999943 14749.090606572892
3.149999999999994 15096.382363419236
3.179999999999994 15427.962928507211
3.2099999999999937 15711.914105362794
3.2399999999999936 15922.809848825616
3.2699999999999934 16043.901698060308
3.299999999999993 16068.320483293559
3.329999999999993 15999.224481358586
3.3599999999999928 15848.935636122482
3.3899999999999926 15637.202731627314
3.4199999999999924 15388.814088376352
3.449999999999992 15130.834034402182
3.479999999999992 14889.762820721111
3.509999999999992 14688.910780053768
3.5399999999999916 14546.239301954332
3.5699999999999914 14472.860588718222
3.599999999999991 14472.31114045547
3.629999999999991 14540.627828419105
3.659999999999991 14667.17366710137
3.6899999999999906 14836.08829050812
3.7199999999999904 15028.180745683312
3.7499999999999902 15223.049726759626
3.77999999999999 15401.20428633551
3.80999999999999 15545.971212090806
3.8399999999999896 15645.009188822483
3.8699999999999894 15691.299119103043
3.8999999999999893 15683.539958365112
3.929999999999989 15625.944889118771
3.959999999999989 15527.492350126073
3.9899999999999887 15400.73924464341
4.019999999999989 15260.34238276799
4.049999999999989 15121.45449913198
4.079999999999989 14998.165315475153
4.10999999999999 14902.142964235107
4.13999999999999 14841.601702260932
4.16999999999999 14820.681145716171
4.19999999999999 14839.275378622744
4.229999999999991 14893.301778558134
4.259999999999991 14975.356692925721
4.289999999999991 15075.667004319574
4.319999999999991 15183.223485579576
4.349999999999992 15286.970080443201
4.379999999999992 15376.924661873609
4.409999999999992 15445.121846633416
4.439999999999992 15486.293071377704
4.469999999999993 15498.231058367937
4.499999999999993 15481.821161782658
4.529999999999993 15440.757424452986
4.559999999999993 15380.99134313511
4.589999999999994 15309.986512848587
4.619999999999994 15235.867049224933
4.649999999999994 15166.553177696725
4.679999999999994 15108.972317678155
4.709999999999995 15068.421596883454
4.739999999999995 15048.136623119848
4.769999999999995 15049.097237554626
4.799999999999995 15070.074513118116
4.829999999999996 15107.899283736715
4.859999999999996 15157.909745317458
4.889999999999996 15214.521231398026
4.919999999999996 15271.85214948036
4.949999999999997 15324.338737564218
4.979999999999997 15367.277186023524
5.009999999999997 15397.242572110616
5.039999999999997 15412.349818170695
5.069999999999998 15412.34148870494
5.099999999999998 15398.504990796087
5.129999999999998 15373.438248112208
5.159999999999998 15340.69878296124
5.189999999999999 15304.379195901098
5.219999999999999 15268.657293978431
5.249999999999999 15237.368152543313
5.279999999999999 15213.640485871045
5.31 15199.629391230175
5.34 15196.365392538162
5.37 15203.728035942771
5.4 15220.537917416315
5.430000000000001 15244.748713763756
5.460000000000001 15273.713755163057
5.490000000000001 15304.494529514544
5.520000000000001 15334.176727797427
5.550000000000002 15360.1617449464
5.580000000000002 15380.40609879898
5.610000000000002 15393.5874557128
5.640000000000002 15399.186312987353
5.670000000000003 15397.481258822576
5.700000000000003 15389.464486834071
5.730000000000003 15376.691772756923
5.760000000000003 15361.08644903391
5.790000000000004 15344.720445197063
5.820000000000004 15329.596317097477
5.850000000000004 15317.452109017024
5.880000000000004 15309.606898164258
5.910000000000005 15306.85962039295
5.940000000000005 15309.446987925072
5.970000000000005 15317.060497477081
6.000000000000005 15328.916374145956
6.030000000000006 15343.868106230566
6.060000000000006 15360.546658087736
6.090000000000006 15377.512446355522
6.120000000000006 15393.402843516078
6.150000000000007 15407.061314009188
6.180000000000007 15417.636639865277
6.210000000000007 15424.644445063443
6.240000000000007 15427.988285275613
6.270000000000008 15427.940810052736
6.300000000000008 15425.090261675983
6.330000000000008 15420.259985201985
6.360000000000008 15414.410736174417
6.390000000000009 15408.536511665327
6.420000000000009 15403.565051465963
6.450000000000009 15400.272524496511
6.480000000000009 15399.21871559802
6.51000000000001 15400.707770764324
6.54000000000001 15404.777355917582
6.57000000000001 15411.213771439416
6.60000000000001 15419.590321587559
6.6300000000000106 15429.32358533508
6.660000000000011 15439.740686320009
6.690000000000011 15450.150503283647
6.720000000000011 15459.911562721296
6.7500000000000115 15468.49033338579
6.780000000000012 15475.504757015859
6.810000000000012 15480.750457035752
6.840000000000012 15484.2079347787
6.8700000000000125 15486.03214552901
6.900000000000013 15486.52651602227
6.930000000000013 15486.103988979736
6.960000000000013 15485.240576486736
6.9900000000000135 15484.426143395915
7.020000000000014 15484.116784141524
7.050000000000014 15484.693725242681
7.080000000000014 15486.431509161577
7.1100000000000145 15489.478341018665
7.140000000000015 15493.849770914418
7.170000000000015 15499.434830507213
7.200000000000015 15506.013950798562
7.2300000000000155 15513.285971521162
7.260000000000016 15520.901213044819
7.290000000000016 15528.497232309572
7.320000000000016 15535.73391215465
7.3500000000000165 15542.32451577683
7.380000000000017 15548.060246139226
7.410000000000017 15552.825991123767
7.440000000000017 15556.606578267201
7.4700000000000175 15559.48308484359
7.500000000000018 15561.620267332002
7.530000000000018 15563.246600804985
7.560000000000018 15564.629240797349
7.5900000000000185 15566.04646901274
7.620000000000019 15567.76031096223
7.650000000000019 15569.991905847766
7.680000000000019 15572.901722051578
7.7100000000000195 15576.576542265271
7.74000000000002 15581.024082222431
7.77000000000002 15586.175629989848
7.80000000000002 15591.895834472558
7.8300000000000205 15597.99846012098
7.860000000000021 15604.266769636844
7.890000000000021 15610.476286280938
7.920000000000021 15616.41734054104
7.9500000000000215 15621.915346228727
7.980000000000022 15626.846772954108
8.010000000000021 15631.149562052007
8.04000000000002 15634.826939768513
8.07000000000002 15637.944551435325
8.10000000000002 15640.621598305152
8.130000000000019 15643.016886046078
8.160000000000018 15645.31128782779
8.190000000000017 15647.688533717524
8.220000000000017 15650.316278474633
8.250000000000016 15653.329514908652
8.280000000000015 15656.817951670375
8.310000000000015 15660.818512784897
8.340000000000014 15665.313433012981
8.370000000000013 15670.233999071525
8.400000000000013 15675.469539412028
8.430000000000012 15680.880282340393
8.460000000000012 15686.313005599579
8.49000000000001 15691.617450849017
8.52000000000001 15696.662184884926
8.55000000000001 15701.347759324915
8.580000000000009 15705.61586034008
8.610000000000008 15709.454030548155
8.640000000000008 15712.895239925067
8.670000000000007 15716.012748945606
8.700000000000006 15718.91089045137
8.730000000000006 15721.712945873333
8.760000000000005 15724.547352843823
8.790000000000004 15727.533974718774
8.820000000000004 15730.771520280869
8.850000000000003 15734.327867808666
8.880000000000003 15738.234071285528
8.910000000000002 15742.482560811774
8.940000000000001 15747.029499589225
8.97 15751.800934237683
9.0 15756.7021080575
9.03 15761.628659814603
9.059999999999999 15766.478376803585
9.089999999999998 15771.162346468842
9.119999999999997 15775.614106058649
9.149999999999997 15779.796424693355
9.179999999999996 15783.704369590867
9.209999999999996 15787.364429890666
9.239999999999995 15790.83034192744
9.269999999999994 15794.17637473041
9.299999999999994 15797.488587271868
9.329999999999993 15800.854911586262
9.359999999999992 15804.355769131249
9.389999999999992 15808.055920269308
9.419999999999991 15811.998055826747
9.44999999999999 15816.19899710481
9.47999999999999 15820.64901165896
9.50999999999999 15825.31399166056
9.539999999999988 15830.14038860772
9.569999999999988 15835.062147103083
9.599999999999987 15840.008942530876
9.629999999999987 15844.914218752592
9.659999999999986 15849.722048105807
9.689999999999985 15854.392452624566
9.719999999999985 15858.90527741919
9.749999999999984 15863.26167447462
9.779999999999983 15867.483411394795
9.809999999999983 15871.60891754086
9.839999999999982 15875.687784241676
9.869999999999981 15879.77452250111
9.89999999999998 15883.922085209171
9.92999999999998 15888.176327654994
9.95999999999998 15892.570977997038
9.989999999999979 15897.12413525811
10.019999999999978 14673.15748576044
10.049999999999978 11842.668727392833
10.079999999999977 7861.995110132093
10.109999999999976 3293.308499131333
10.139999999999976 -1269.74091992899
10.169999999999975 -5276.2926700788175
10.199999999999974 -8281.817706469259
10.229999999999974 -9993.779442052582
10.259999999999973 -10295.443470266206
10.289999999999973 -9246.864656111124
10.319999999999972 -7064.874924790772
10.349999999999971 -4086.0968337019885
10.37999999999997 -718.6091552347561
10.40999999999997 2611.3005727249124
10.43999999999997 5510.818230893828
10.469999999999969 7664.873948052997
10.499999999999968 8868.345768455874
10.529999999999967 9043.164281448517
10.559999999999967 8239.14377689039
10.589999999999966 6619.412800333252
10.619999999999965 4433.08378002781
10.649999999999965 1979.3141173781644
10.679999999999964 -432.2361908766952
10.709999999999964 -2519.3897667289993
10.739999999999963 -4059.275319237544
10.769999999999962 -4910.53217399139
10.799999999999962 -5023.956995877787
10.829999999999961 -4441.239976798464
10.85999999999996 -3282.9874941150374
10.88999999999996 -1728.3345924312162
10.919999999999959 10.709413152813612
10.949999999999958 1716.7400471931398
10.979999999999958 3192.8923573180687
11.009999999999957 4284.32702966408
11.039999999999957 4893.100144717612
11.069999999999956 4985.198063938968
11.099999999999955 4589.503946039645
11.129999999999955 3789.472378749396
11.159999999999954 2709.0406945480704
11.189999999999953 1494.9228987998629
11.219999999999953 297.6634479435608
11.249999999999952 -746.2063753661444
11.279999999999951 -1528.901423513927
11.30999999999995 -1981.5334218305843
11.33999999999995 -2078.8882433864233
11.36999999999995 -1838.725557685851
11.399999999999949 -1316.1676402773073
11.429999999999948 -594.2350555101114
11.459999999999948 228.03132984311017
11.489999999999947 1048.2882615043254
11.519999999999946 1772.9099341451238
11.549999999999946 2326.9836684606876
11.579999999999945 2661.3014796667303
11.609999999999944 2755.8054260502827
11.639999999999944 2619.392065524312
11.669999999999943 2286.4236977408127
11.699999999999942 1810.627193403228
11.729999999999942 1257.3181952668172
11.759999999999941 694.987914166227
11.78999999999994 187.2665582330239
11.81999999999994 -213.8454128420055
11.84999999999994 -472.8265625185373
11.879999999999939 -573.1828111537959
11.909999999999938 -517.6166649667998
11.939999999999937 -326.0138404853015
11.969999999999937 -31.674587322661917
11.999999999999936 323.61889736780654
12.029999999999935 695.0347073401612
12.059999999999935 1039.9652111921232
12.089999999999934 1322.5615447387815
12.119999999999933 1517.0901591814468
12.149999999999933 1609.8471085069111
12.179999999999932 1599.5573326163371
12.209999999999932 1496.3609071642188
12.239999999999931 1319.6353354740859
12.26999999999993 1095.0111849141153
12.29999999999993 850.9883699547368
12.329999999999929 615.5624909200583
12.359999999999928 413.2318128752795
12.389999999999928 262.6745667610102
12.419999999999927 175.28355001973617
12.449999999999926 154.63240020401187
12.479999999999926 196.83946272034143
12.509999999999925 291.6991161381685
12.539999999999925 424.3778378028444
12.569999999999924 577.4372523434977
12.599999999999923 732.9298477533472
12.629999999999923 874.337721633026
12.659999999999922 988.1622837174461
12.689999999999921 1065.0355933610508
12.71999999999992 1100.287123823735
12.74999999999992 1093.9654824076651
12.77999999999992 1050.3726868122276
12.809999999999919 977.2120346966138
12.839999999999918 884.4761408762062
12.869999999999918 783.217193220358
12.899999999999917 684.3356301176692
12.929999999999916 597.5054210695755
12.959999999999916 530.329484376741
12.989999999999915 487.7831713674347
13.019999999999914 471.969905247955
13.049999999999914 482.1813384050902
13.079999999999913 515.2223330677061
13.109999999999912 565.9430447511752
13.139999999999912 627.9052399785729
13.169999999999911 694.106579385097
13.19999999999991 757.690720792034
13.22999999999991 812.5801054929611
13.25999999999991 853.9818494614817
13.289999999999909 878.7329602953271
13.319999999999908 885.4701829822549
13.349999999999907 874.6248089229089
13.379999999999907 848.2549665213423
13.409999999999906 809.7439446841358
13.439999999999905 763.4019978223585
13.469999999999905 714.0100915197518
13.499999999999904 666.3498795837636
13.529999999999903 624.7621581962608
13.559999999999903 592.7700846382397
13.589999999999902 572.7947940890325
13.619999999999902 565.9848690861379
13.6499999999999 572.1685626432931
13.6799999999999 589.9306641690778
13.7099999999999 616.8008027110533
13.739999999999899 649.5326190555547
13.769999999999898 684.4455008291089
13.799999999999898 717.7952022032846
13.829999999999897 746.1390930920846
13.859999999999896 766.6624501500837
13.889999999999896 777.433472222295
13.919999999999895 777.5669961821227
13.949999999999894 767.2808877406937
13.979999999999894 747.8405898453195
14.009999999999893 721.4003387907889
14.039999999999893 690.7587589639467
14.069999999999892 659.0571320526702
14.099999999999891 629.4471283339639
14.12999999999989 604.7667645293841
14.15999999999989 587.2562069030254
14.18999999999989 578.3422407858609
14.219999999999889 578.5122551409731
14.249999999999888 587.2914577820549
14.279999999999887 603.3201575358755
14.309999999999887 624.5212292208175
14.339999999999886 648.3392482167643
14.369999999999886 672.0275401262982
14.399999999999885 692.9480280177129
14.429999999999884 708.8494903160505
14.459999999999884 718.0988962758439
14.489999999999883 719.8389359072064
14.519999999999882 714.0553783282094
14.549999999999882 701.5509382085127
14.579999999999881 683.8341922256275
14.60999999999988 662.9330279307658
14.63999999999988 641.1557804172631
14.66999999999988 620.8279293242862
14.699999999999878 604.0379245137229
14.729999999999878 592.4170557173102
14.759999999999877 586.9758011431716
14.789999999999877 588.0133086895215
14.819999999999876 595.1093522118106
14.849999999999875 607.1966282121955
14.879999999999875 622.7018063967325
14.909999999999874 639.7387925445306
14.939999999999873 656.3296657769922
14.969999999999873 670.6279731509948
14.999999999999872 681.1179280820307
15.029999999999871 686.7691213384091
15.05999999999987 687.1334006343458
15.08999999999987 682.3709386338058
15.11999999999987 673.2087480723171
15.149999999999869 660.8370846239667
15.179999999999868 646.7582228840226
15.209999999999868 632.604674087454
15.239999999999867 619.9493032086967
15.269999999999866 610.1319784724152
15.299999999999866 604.1205173831153
15.329999999999865 602.4179036789856
15.359999999999864 605.0260018004476
15.389999999999864 611.46723259049
15.419999999999863 620.8563926660356
15.449999999999863 632.0187013966768
15.479999999999862 643.6345720899332
15.509999999999861 654.3942127938145
15.53999999999986 663.1438920615972
15.56999999999986 669.0098658696156
15.59999999999986 671.4821045770045
15.629999999999859 670.4530003527718
15.659999999999858 666.2102771608014
15.689999999999857 659.3857792094996
15.719999999999857 650.8682565554763
15.749999999999856 641.690326850214
15.779999999999855 632.9056390729587
15.809999999999855 625.4688001487518
15.839999999999854 620.1326912364127
15.869999999999854 617.3733380751967
15.899999999999853 617.3492348510471
15.929999999999852 619.9005344017061
15.959999999999852 624.5828178494719
15.989999999999851 630.7306751382465
16.01999999999985 637.5441851833255
16.04999999999985 644.186955478821
16.079999999999853 649.8832085651525
16.109999999999854 654.002683333917
16.139999999999855 656.1249357094812
16.169999999999856 656.0764568241036
16.199999999999857 653.9380027450701
16.22999999999986 650.0207472200508
16.25999999999986 644.8212026084998
16.28999999999986 638.9566792806112
