# Results for "element" with Id # 1517869 for search config "initial" at position: x0: -12.5736842105; y0: -26.9263157895; z0: 167.6667
# time PRESSURE
0.03 1363.286116800998
0.06 3898.5738242031416
0.09 7322.4159131738115
0.12 11285.45237399515
0.15 15405.198168159885
0.18 19300.936840865827
0.21 22627.380142903763
0.24 25104.26501272971
0.27 26539.457282622774
0.30000000000000004 26843.614316451465
0.33000000000000007 26035.120208836714
0.3600000000000001 24234.860674127474
0.3900000000000001 21651.403567455876
0.42000000000000015 18558.164817565168
0.4500000000000002 15265.01717049254
0.4800000000000002 12087.386145666267
0.5100000000000002 9316.072247638747
0.5400000000000003 7190.81867648961
0.5700000000000003 5880.0674206267295
0.6000000000000003 5468.533636985438
0.6300000000000003 5953.312496920154
0.6600000000000004 7248.353485842579
0.6900000000000004 9196.371260093012
0.7200000000000004 11586.682553240738
0.7500000000000004 14177.055285743929
0.7800000000000005 16717.43905256735
0.8100000000000005 18973.39435919006
0.8400000000000005 20747.145602724224
0.8700000000000006 21894.44603174247
0.9000000000000006 22335.84888257169
0.9300000000000006 22061.51474185232
0.9600000000000006 21129.296546084475
0.9900000000000007 19656.494346147603
1.0200000000000007 17806.269255212555
1.0500000000000007 15770.215455278074
1.0800000000000007 13748.92536706305
1.1100000000000008 11932.524369185709
1.1400000000000008 10483.076161519903
1.1700000000000008 9520.483782882655
1.2000000000000008 9113.080628737154
1.2300000000000009 9273.571496308676
1.260000000000001 9960.429514455933
1.290000000000001 11084.326632074779
1.320000000000001 12518.737765532424
1.350000000000001 14113.530563100105
1.380000000000001 15710.1522985099
1.410000000000001 17156.952708424542
1.440000000000001 18323.22984615317
1.470000000000001 19110.747787305765
1.500000000000001 19461.734502428728
1.5300000000000011 19362.71893330598
1.5600000000000012 18843.968989856265
1.5900000000000012 17974.722935886737
1.6200000000000012 16854.825756002287
1.6500000000000012 15603.717981347818
1.6800000000000013 14347.974504496182
1.7100000000000013 13208.693443919441
1.7400000000000013 12289.997310295716
1.7700000000000014 11669.735942121293
1.8000000000000014 11393.203513256656
1.8300000000000014 11470.33097605993
1.8600000000000014 11876.448465541487
1.8900000000000015 12556.352887466457
1.9200000000000015 13431.114326319424
1.9500000000000015 14406.829209411153
1.9800000000000015 15384.385661514369
2.0100000000000016 16269.262926488747
2.0400000000000014 16980.431372653853
2.070000000000001 17457.54663222912
2.100000000000001 17665.82335611209
2.130000000000001 17598.22090162059
2.1600000000000006 17274.838932531027
2.1900000000000004 16739.699093889096
2.22 16055.334924509929
2.25 15295.812057573134
2.28 14538.93554366641
2.3099999999999996 13858.449635324898
2.3399999999999994 13317.00312603648
2.369999999999999 12960.540752128169
2.399999999999999 12814.609398434532
2.429999999999999 12882.850097092098
2.4599999999999986 13147.720001591639
2.4899999999999984 13573.26179215503
2.5199999999999982 14109.547890570166
2.549999999999998 14698.281947601536
2.579999999999998 15278.950050182155
2.6099999999999977 15794.891201691029
2.6399999999999975 16198.692784953413
2.6699999999999973 16456.41040298809
2.699999999999997 16550.250009552077
2.729999999999997 16479.517711686374
2.7599999999999967 16259.824652890566
2.7899999999999965 15920.709898108486
2.8199999999999963 15501.995986189653
2.849999999999996 15049.303581354821
2.879999999999996 14609.217936094276
2.9099999999999957 14224.608959232623
2.9399999999999955 13930.56607581025
2.9699999999999953 13751.322390942054
2.999999999999995 13698.422740020449
3.029999999999995 13770.252854791734
3.0599999999999947 13952.902747873179
3.0899999999999945 14222.207877229996
3.1199999999999943 14546.70127876909
3.149999999999994 14891.135946496644
3.179999999999994 15220.196277849152
3.2099999999999937 15502.019709678128
3.2399999999999936 15711.187197019119
3.2699999999999934 15830.911647048972
3.299999999999993 15854.247319500919
3.329999999999993 15784.24915579887
3.3599999999999928 15633.121988203195
3.3899999999999926 15420.497168246573
3.4199999999999924 15171.057629955452
3.449999999999992 14911.784687158066
3.479999999999992 14669.125285211605
3.509999999999992 14466.369940458264
3.5399999999999916 14321.493844648503
3.5699999999999914 14245.653232509369
3.599999999999991 14242.452407783745
3.629999999999991 14308.011200556033
3.659999999999991 14431.780994677621
3.6899999999999906 14597.985275594649
3.7199999999999904 14787.503683920964
3.7499999999999902 14979.985369473248
3.77999999999999 15155.965395963349
3.80999999999999 15298.770815321213
3.8399999999999896 15396.036408805512
3.8699999999999894 15440.699106031409
3.8999999999999893 15431.39987815766
3.929999999999989 15372.287095433
3.959999999999989 15272.274996521523
3.9899999999999887 15143.863822467494
4.019999999999989 15001.666904775513
4.049999999999989 14860.810569336392
4.079999999999989 14735.377026490323
4.10999999999999 14637.045469100234
4.13999999999999 14574.05752934685
4.16999999999999 14550.592596570998
4.19999999999999 14566.591816876433
4.229999999999991 14618.021446497469
4.259999999999991 14697.523089601156
4.289999999999991 14795.360622554921
4.319999999999991 14900.550007500426
4.349999999999992 15002.046579782294
4.379999999999992 15089.8654456957
4.409999999999992 15156.025485665612
4.439999999999992 15195.231990844084
4.469999999999993 15205.244617327397
4.499999999999993 15186.912753729943
4.529999999999993 15143.895708715962
4.559999999999993 15082.115266248284
4.589999999999994 15009.013286297815
4.619999999999994 14932.702171642046
4.649999999999994 14861.10114487204
4.679999999999994 14801.146821466831
4.709999999999995 14758.15417107428
4.739999999999995 14735.382785099451
4.769999999999995 14733.839546661227
4.799999999999995 14752.322430197584
4.829999999999996 14787.68613379406
4.859999999999996 14835.28733285831
4.889999999999996 14889.552763391668
4.919999999999996 14944.604355223142
4.949999999999997 14994.874064845751
4.979999999999997 15035.647005495895
5.009999999999997 15063.48211765234
5.039999999999997 15076.475126848669
5.069999999999998 15074.348977823573
5.099999999999998 15058.37323146138
5.129999999999998 15031.131594343226
5.159999999999998 14996.172329586923
5.189999999999999 14957.584496555039
5.219999999999999 14919.548032715316
5.249999999999999 14885.90522132477
5.279999999999999 14859.796209795562
5.31 14843.39038158999
5.34 14837.733022654054
5.37 14842.717517551755
5.4 14857.176253423342
5.430000000000001 14879.071262051932
5.460000000000001 14905.759975808154
5.490000000000001 14934.30372340304
5.520000000000001 14961.783835850672
5.550000000000002 14985.593813730487
5.580000000000002 15003.680454715057
5.610000000000002 15014.710956483585
5.640000000000002 15018.155628036271
5.670000000000003 15014.284322238524
5.700000000000003 15004.083123621824
5.730000000000003 14989.104931076288
5.760000000000003 14971.273596500047
5.790000000000004 14952.664620246367
5.820000000000004 14935.286326999036
5.850000000000004 14920.883900809318
5.880000000000004 14910.784156902591
5.910000000000005 14905.793763177839
5.940000000000005 14906.156264066998
5.970000000000005 14911.568268640862
6.000000000000005 14921.248817553027
6.030000000000006 14934.051901302826
6.060000000000006 14948.606880803154
6.090000000000006 14963.470850309071
6.120000000000006 14977.276491464756
6.150000000000007 14988.86202060572
6.180000000000007 14997.371263091993
6.210000000000007 15002.315337088585
6.240000000000007 15003.594641336527
6.270000000000008 15001.480224571857
6.300000000000008 14996.56017153084
6.330000000000008 14989.659246904488
6.360000000000008 14981.741078658406
6.390000000000009 14973.803191466523
6.420000000000009 14966.777371434513
6.450000000000009 14961.444228318212
6.480000000000009 14958.367672513863
6.51000000000001 14957.854868979059
6.54000000000001 14959.945773018884
6.57000000000001 14964.427600763762
6.60000000000001 14970.873213463332
6.6300000000000106 14978.697352054056
6.660000000000011 14987.224193137676
6.690000000000011 14995.759469919054
6.720000000000011 15003.658964730854
6.7500000000000115 15010.387122425027
6.780000000000012 15015.56050334785
6.810000000000012 15018.97368698181
6.840000000000012 15020.606371477941
6.8700000000000125 15020.613464668651
6.900000000000013 15019.299423272074
6.930000000000013 15017.078914382157
6.960000000000013 15014.429829027315
6.9900000000000135 15011.843764358204
7.020000000000014 15009.778146562569
7.050000000000014 15008.614927009869
7.080000000000014 15008.628672027411
7.1100000000000145 15009.96702620925
7.140000000000015 15012.64449575164
7.170000000000015 15016.548515276823
7.200000000000015 15021.45746183239
7.2300000000000155 15027.067788951766
7.260000000000016 15033.027261595862
7.290000000000016 15038.970874447275
7.320000000000016 15044.556080591363
7.3500000000000165 15049.49399864006
7.380000000000017 15053.574178902492
7.410000000000017 15056.680411512847
7.440000000000017 15058.796976643855
7.4700000000000175 15060.004692410916
7.500000000000018 15060.468132066373
7.530000000000018 15060.415505117886
7.560000000000018 15060.11353288965
7.5900000000000185 15059.83990963103
7.620000000000019 15059.85602332265
7.650000000000019 15060.38219564733
7.680000000000019 15061.577747625306
7.7100000000000195 15063.528085461565
7.74000000000002 15066.239469565364
7.77000000000002 15069.64176930068
7.80000000000002 15073.598376588701
7.8300000000000205 15077.921792802375
7.860000000000021 15082.394165541667
7.890000000000021 15086.79023628416
7.920000000000021 15090.900015482928
7.9500000000000215 15094.549035050335
7.980000000000022 15097.61423784677
8.010000000000021 15100.034147618706
8.04000000000002 15101.812560783652
8.07000000000002 15103.015674415848
8.10000000000002 15103.763141382431
8.130000000000019 15104.214094698304
8.160000000000018 15104.54965419348
8.190000000000017 15104.953648789196
8.220000000000017 15105.593636444803
8.250000000000016 15106.604378044283
8.280000000000015 15108.075228532478
8.310000000000015 15110.042753017316
8.340000000000014 15112.488795944457
8.370000000000013 15115.34424905426
8.400000000000013 15118.498174271963
8.430000000000012 15121.810580878675
8.460000000000012 15125.128134783974
8.49000000000001 15128.300519922948
8.52000000000001 15131.1966179524
8.55000000000001 15133.71763645853
8.580000000000009 15135.805916548998
8.610000000000008 15137.449555659385
8.640000000000008 15138.681853583026
8.670000000000007 15139.576292191268
8.700000000000006 15140.237339968038
8.730000000000006 15140.788667959574
8.760000000000005 15141.359400484114
8.790000000000004 15142.070113164158
8.820000000000004 15143.020167730858
8.850000000000003 15144.278157429353
8.880000000000003 15145.87605176273
8.910000000000002 15147.807464052741
8.940000000000001 15150.029905810701
8.97 15152.470627142782
9.0 15155.03609386829
9.03 15157.623528105943
9.059999999999999 15160.132552273313
9.089999999999998 15162.476437589054
9.119999999999997 15164.590872307315
9.149999999999997 15166.440873395411
9.179999999999996 15168.023935546029
9.209999999999996 15169.368899201
9.239999999999995 15170.531650033217
9.269999999999994 15171.58843651874
9.299999999999994 15172.62682578133
9.329999999999993 15173.7358533738
9.359999999999992 15174.996958008163
9.389999999999992 15176.476323785897
9.419999999999991 15178.21829313262
9.44999999999999 15180.241139910118
9.47999999999999 15182.536172715505
9.50999999999999 15185.069845867303
9.539999999999988 15187.78872522191
9.569999999999988 15190.626675640622
9.599999999999987 15193.513246715132
9.629999999999987 15196.381715188421
9.659999999999986 15199.175784437368
9.689999999999985 15201.85436282321
9.719999999999985 15204.395677558401
9.749999999999984 15206.798959569394
9.779999999999983 15209.084014810425
9.809999999999983 15211.28698065739
9.839999999999982 15213.45450546285
9.869999999999981 15215.637657397492
9.89999999999998 15217.885390264417
9.92999999999998 15220.24005341762
9.95999999999998 15222.732286605744
9.989999999999979 15225.376899589692
10.019999999999978 14013.027604920971
10.049999999999978 11209.74334324351
10.079999999999977 7264.25419833022
10.109999999999976 2731.5518204070845
10.139999999999976 -1800.2095242478458
10.169999999999975 -5783.504251071718
10.199999999999974 -8775.065203923083
10.229999999999974 -10481.954803858565
10.259999999999973 -10785.925044781281
10.289999999999973 -9744.9558803141
10.319999999999972 -7573.698871366398
10.349999999999971 -4606.783700126269
10.37999999999997 -1250.612639079902
10.40999999999997 2069.8767333401042
10.43999999999997 4962.919001842846
10.469999999999969 7114.192934886472
10.499999999999968 8318.978686108914
10.529999999999967 8499.184627557937
10.559999999999967 7704.116261388829
10.589999999999966 6095.91446917263
10.619999999999965 3922.3283734869738
10.649999999999965 1480.9670963775088
10.679999999999964 -920.0026336995355
10.709999999999964 -2999.6076199544405
10.739999999999963 -4535.712523215991
10.769999999999962 -5387.131561132563
10.799999999999962 -5504.279855534602
10.829999999999961 -4928.003571982617
10.85999999999996 -3777.760625537921
10.88999999999996 -2231.4267392819756
10.919999999999959 -499.83484535561035
10.949999999999958 1200.5395696915425
10.979999999999958 2673.40141805972
11.009999999999957 3764.0754047447217
11.039999999999957 4374.392029531127
11.069999999999956 4469.793882987756
11.099999999999955 4078.4122870030296
11.129999999999955 3282.8663345560344
11.159999999999954 2206.296123320298
11.189999999999953 994.7600525549356
11.219999999999953 -201.63880442565562
11.249999999999952 -1246.5604608663232
11.279999999999951 -2032.1607672492148
11.30999999999995 -2489.273204278886
11.33999999999995 -2592.2418954150503
11.36999999999995 -2358.294156031492
11.399999999999949 -1842.0014231208947
11.429999999999948 -1125.8835349137703
11.459999999999948 -308.5887148142267
11.489999999999947 507.78312171808454
11.519999999999946 1229.6840155890889
11.549999999999946 1782.1229987388256
11.579999999999945 2115.6807288245705
11.609999999999944 2209.9969254701614
11.639999999999944 2073.6205512881074
11.669999999999943 1740.565566862988
11.699999999999942 1264.2549812142624
11.729999999999942 709.7813747979817
11.759999999999941 145.51854612479008
11.78999999999994 -364.90811216907633
11.81999999999994 -769.3940851962541
11.84999999999994 -1032.2268637327957
11.879999999999939 -1136.6650823182792
11.909999999999938 -1085.1434265066666
11.939999999999937 -897.2948061329256
11.969999999999937 -606.2141123150726
11.999999999999936 -253.548963552259
12.029999999999935 115.92018560631112
12.059999999999935 459.55444774613056
12.089999999999934 741.4018237863157
12.119999999999933 935.5733889631555
12.149999999999933 1028.1815211084586
12.179999999999932 1017.7643953618186
12.209999999999932 914.2950418126486
12.239999999999931 737.0230028329378
12.26999999999993 511.50286678344594
12.29999999999993 266.21570079168123
12.329999999999929 29.192442699157496
12.359999999999928 -174.98854261619846
12.389999999999928 -327.53883174576146
12.419999999999927 -416.9423552662403
12.449999999999926 -439.5063496109716
12.479999999999926 -399.011907439151
12.509999999999925 -305.5951661363524
12.539999999999925 -174.05907030310556
12.569999999999924 -21.851456768585557
12.599999999999923 133.03436081257502
12.629999999999923 274.00624720281075
12.659999999999922 387.4744394618445
12.689999999999921 463.9754819538104
12.71999999999992 498.75023001576756
12.74999999999992 491.7750984224783
12.77999999999992 447.3023750232343
12.809999999999919 373.0112865895901
12.839999999999918 278.89604378838465
12.869999999999918 176.0332146563557
12.899999999999917 75.3648107943786
12.929999999999916 -13.383506487954964
12.959999999999916 -82.55487115731336
12.989999999999915 -127.12562737390178
13.019999999999914 -144.95631157249204
13.049999999999914 -136.73562080394052
13.079999999999913 -105.65719257927125
13.109999999999912 -56.886832867077224
13.139999999999912 3.1068837824198017
13.169999999999911 67.2822702463779
13.19999999999991 128.74085276880982
13.22999999999991 181.36576631599033
13.25999999999991 220.33214404446028
13.289999999999909 242.4552010233021
13.319999999999908 246.36234863627948
13.349999999999907 232.48909669466227
13.379999999999907 202.9092567282124
13.409999999999906 161.03038179730797
13.439999999999905 111.19412864218337
13.469999999999905 58.216784275291566
13.499999999999904 6.914949765252095
13.529999999999903 -38.33936251364044
13.559999999999903 -73.99808107782319
13.589999999999902 -97.6227570875786
13.619999999999902 -108.05516319809621
13.6499999999999 -105.46406465465354
13.6799999999999 -91.2667796664887
13.7099999999999 -67.93856370339176
13.739999999999899 -38.72981608553199
13.769999999999898 -7.322332966591794
13.799999999999898 22.542283377138276
13.829999999999897 47.42969467766587
13.859999999999896 64.53797336747198
13.889999999999896 71.95120152795333
13.919999999999895 68.80299109045791
13.949999999999894 55.33159504119731
13.979999999999894 32.82149073851687
14.009999999999893 3.4433076334831654
14.039999999999893 -29.990128366789616
14.069999999999892 -64.32821536321372
14.099999999999891 -96.41677048476078
14.12999999999989 -123.42012188906475
14.15999999999989 -143.10584554297395
14.18999999999989 -154.058491036812
14.219999999999889 -155.80446726389442
14.249999999999888 -148.83386776248355
14.279999999999887 -134.52206084063113
14.309999999999887 -114.96008864758238
14.339999999999886 -92.71489825583396
14.369999999999886 -70.54061997102926
14.399999999999885 -51.07836198963837
14.429999999999884 -36.579809160565674
14.459999999999884 -28.67504959479991
14.489999999999883 -28.214672001490484
14.519999999999882 -35.20392023825154
14.549999999999882 -48.83223427552112
14.579999999999881 -67.58423452318256
14.60999999999988 -89.42709032716472
14.63999999999988 -112.04999397855454
14.66999999999988 -133.1293650847803
14.699999999999878 -150.57984366559597
14.729999999999878 -162.77242102374925
14.759999999999877 -168.6975576130951
14.789999999999877 -168.05700097123386
14.819999999999876 -161.2726735853671
14.849999999999875 -149.41348619570795
14.879999999999875 -134.05393541345836
14.909999999999874 -117.07931259239703
14.939999999999873 -100.46497069010724
14.969999999999873 -86.0539775270398
14.999999999999872 -75.35875954898846
15.029999999999871 -69.40767384614932
15.05999999999987 -68.64696056621523
15.08999999999987 -72.91538222422164
15.11999999999987 -81.48492319034273
15.149999999999869 -93.16400741707886
15.179999999999868 -106.44905417757607
15.209999999999868 -119.70799187715377
15.239999999999867 -131.37257530212486
15.269999999999866 -140.10939731671192
15.299999999999866 -144.95559873617003
15.329999999999865 -145.410817648796
15.359999999999864 -141.47316659524893
15.389999999999864 -133.61793048482497
15.419999999999863 -122.73074555538471
15.449999999999863 -109.99009499709629
15.479999999999862 -96.72251176416411
15.509999999999861 -84.24628582455466
15.53999999999986 -73.72383779847931
15.56999999999986 -66.03541176879062
15.59999999999986 -61.696239560315256
15.629999999999859 -60.81942879688345
15.659999999999858 -63.12377901801621
15.689999999999857 -67.98427771243601
15.719999999999857 -74.5183925845216
15.749999999999856 -81.6994625379242
15.779999999999855 -88.4789819604039
15.809999999999855 -93.90868245657927
15.839999999999854 -97.2418418714947
15.869999999999854 -98.00640167858063
15.899999999999853 -96.04512710957164
15.929999999999852 -91.5165533746295
15.959999999999852 -84.86055976308334
15.989999999999851 -76.73632068053368
16.01999999999985 -67.9377368272168
16.04999999999985 -59.29619240375331
16.079999999999853 -51.58304751631118
16.109999999999854 -45.42400991445843
16.139999999999855 -41.23384434688009
16.169999999999856 -39.17966642978265
