# Results for "element" with Id # 2049264 for search config "initial" at position: x0: -15.7631578947; y0: -23.7368421053; z0: 167.6667
# time PRESSURE
0.03 1365.8399005743088
0.06 3905.908091744795
0.09 7336.25641583676
0.12 11306.892452386674
0.15 15434.61927337566
0.18 19337.985194995872
0.21 22671.002497905058
0.24 25152.805564939106
0.27 26590.81438059102
0.30000000000000004 26895.4487290431
0.33000000000000007 26085.09754185342
0.3600000000000001 24280.90165513765
0.3900000000000001 21691.910911171522
0.42000000000000015 18592.1952343218
0.4500000000000002 15292.37387469291
0.4800000000000002 12108.619045763764
0.5100000000000002 9332.387614024743
0.5400000000000003 7203.914033918994
0.5700000000000003 5891.917483614901
0.6000000000000003 5481.157486255761
0.6300000000000003 5968.550699944796
0.6600000000000004 7267.67881524075
0.6900000000000004 9220.749161294556
0.7200000000000004 11616.491400616162
0.7500000000000004 14212.07109985628
0.7800000000000005 16756.885055672723
0.8100000000000005 19016.051045926008
0.8400000000000005 20791.510918984866
0.8700000000000006 21938.92802157937
0.9000000000000006 22378.96629171091
0.9300000000000006 22102.0775256489
0.9600000000000006 21166.53942891192
0.9900000000000007 19690.14469830346
1.0200000000000007 17836.541966664074
1.0500000000000007 15797.740835740933
1.0800000000000007 13774.627003105314
1.1100000000000008 11957.470265719947
1.1400000000000008 10508.327723716882
1.1700000000000008 9546.96402941597
1.2000000000000008 9141.47733325667
1.2300000000000009 9304.283774985843
1.260000000000001 9993.55978544774
1.290000000000001 11119.713042866748
1.320000000000001 12556.017480585191
1.350000000000001 14152.220635812962
1.380000000000001 15749.733545842391
1.410000000000001 17196.94308473639
1.440000000000001 18363.23720660529
1.470000000000001 19150.497066800694
1.500000000000001 19501.069826160867
1.5300000000000011 19401.5862565578
1.5600000000000012 18882.387803260222
1.5900000000000012 18012.756405755612
1.6200000000000012 16892.55721804686
1.6500000000000012 15641.238252625604
1.6800000000000013 14385.380478244166
1.7100000000000013 13246.094703463063
1.7400000000000013 12327.5253138179
1.7700000000000014 11707.549849589024
1.8000000000000014 11431.488275497064
1.8300000000000014 11509.285705824019
1.8600000000000014 11916.266461802292
1.8900000000000015 12597.19705558332
1.9200000000000015 13473.093270520409
1.9500000000000015 14449.9793637144
1.9800000000000015 15428.663542031809
2.0100000000000016 16314.54941736189
2.0400000000000014 17026.547459852136
2.070000000000001 17504.277777467138
2.100000000000001 17712.94810174481
2.130000000000001 17645.53891958085
2.1600000000000006 17322.19413457467
2.1900000000000004 16786.994894502735
2.22 16102.5405293488
2.25 15342.960264116817
2.28 14586.11392312873
2.3099999999999996 13905.787481899075
2.3399999999999994 13364.656574670864
2.369999999999999 13008.677881421898
2.399999999999999 12863.396446582798
2.429999999999999 12932.439173068193
2.4599999999999986 13198.238383098102
2.4899999999999984 13624.802823170096
2.5199999999999982 14162.16369403407
2.549999999999998 14751.978637240885
2.579999999999998 15333.686299667046
2.6099999999999977 15850.58109498673
2.6399999999999975 16255.213510467187
2.6699999999999973 16513.614707761084
2.699999999999997 16607.982485205725
2.729999999999997 16537.63311499028
2.7599999999999967 16318.205819281757
2.7899999999999965 15979.28262737492
2.8199999999999963 15560.738619722324
2.849999999999996 15108.249679435301
2.879999999999996 14668.451632500553
2.9099999999999957 14284.253720095436
2.9399999999999955 13990.768647139665
2.9699999999999953 13812.234391697002
2.999999999999995 13760.182564243085
3.029999999999995 13832.970331497594
3.0599999999999947 14016.64839857123
3.0899999999999945 14287.007782350625
3.1199999999999943 14612.537649700855
3.149999999999994 14957.95281206977
3.179999999999994 15287.90906533804
3.2099999999999937 15570.52721110598
3.2399999999999936 15780.384323005921
3.2699999999999934 15900.701500799008
3.299999999999993 15924.551398555992
3.329999999999993 15855.014799259978
3.3599999999999928 15704.326577616526
3.3899999999999926 15492.148921211863
3.4199999999999924 15243.193187694176
3.449999999999992 14984.463921771061
3.479999999999992 14742.424011213152
3.509999999999992 14540.371383991222
3.5399999999999916 14396.279795500152
3.5699999999999914 14321.2958097693
3.599999999999991 14319.007296402888
3.629999999999991 14385.513009545044
3.659999999999991 14510.241120764731
3.6899999999999906 14677.392419929303
3.7199999999999904 14867.826777742408
3.7499999999999902 15061.178482045403
3.77999999999999 15237.973979507773
3.80999999999999 15381.538496795622
3.8399999999999896 15479.511548211329
3.8699999999999894 15524.84043028649
3.8999999999999893 15516.180625805235
3.929999999999989 15457.697316384982
3.959999999999989 15358.321892716693
3.9899999999999887 15230.570202258485
4.019999999999989 15089.068050042539
4.049999999999989 14948.949944730473
4.079999999999989 14824.3013554397
4.10999999999999 14726.799747830806
4.13999999999999 14664.680498906819
4.16999999999999 14642.113144990566
4.19999999999999 14659.026678237173
4.229999999999991 14711.37432875597
4.259999999999991 14791.785274954078
4.289999999999991 14890.512863080681
4.319999999999991 14996.565451444068
4.349999999999992 15098.89433665808
4.379999999999992 15187.514362411415
4.409999999999992 15254.447712238296
4.439999999999992 15294.405950575625
4.469999999999993 15305.157113228785
4.499999999999993 15287.560035299886
4.529999999999993 15245.28343513683
4.559999999999993 15184.257422597871
4.589999999999994 15111.930248634915
4.619999999999994 15036.418138905397
4.649999999999994 14965.641300212592
4.679999999999994 14906.534554962707
4.709999999999995 14864.408646602793
4.739999999999995 14842.517116260306
4.769999999999995 14841.85976342949
4.799999999999995 14861.227296031206
4.829999999999996 14897.467752937971
4.859999999999996 14945.932419637871
4.889999999999996 15001.04441764586
4.919999999999996 15056.924115548061
4.949999999999997 15108.004010597604
4.979999999999997 15149.57165624042
5.009999999999997 15178.189920519917
5.039999999999997 15191.959446840434
5.069999999999998 15190.608375124064
5.099999999999998 15175.411136248487
5.129999999999998 15148.955466317777
5.159999999999998 15114.792422474464
5.189999999999999 15077.012379226944
5.219999999999999 15039.795078960691
5.249999999999999 15006.981208226965
5.279999999999999 14981.708096988357
5.31 14966.141430143616
5.34 14961.322553343285
5.37 14967.141035544444
5.4 14982.42588378613
5.430000000000001 15005.136599884347
5.460000000000001 15032.629180567794
5.490000000000001 15061.964637506902
5.520000000000001 15090.22514145882
5.550000000000002 15114.806071427956
5.580000000000002 15133.656683921603
5.610000000000002 15145.446905781118
5.640000000000002 15149.649785162903
5.670000000000003 15146.537580434322
5.700000000000003 15137.098141760438
5.730000000000003 15122.885337857297
5.760000000000003 15105.823098509136
5.790000000000004 15087.986164250127
5.820000000000004 15071.381471048167
5.850000000000004 15057.752369708098
5.880000000000004 15048.423588446845
5.910000000000005 15044.199628167338
5.940000000000005 15045.322047769472
5.970000000000005 15051.485881682771
6.000000000000005 15061.909196368097
6.030000000000006 15075.445629913766
6.060000000000006 15090.724766672758
6.090000000000006 15106.304416925122
6.120000000000006 15120.818407453366
6.150000000000007 15133.10628017235
6.180000000000007 15142.313119146298
6.210000000000007 15147.951219373617
6.240000000000007 15149.921793768184
6.270000000000008 15148.496292060017
6.300000000000008 15144.262870079781
6.330000000000008 15138.045959838339
6.360000000000008 15130.808456520044
6.390000000000009 15123.546980376035
6.420000000000009 15117.19221013328
6.450000000000009 15112.523471308967
6.480000000000009 15110.103460666789
6.51000000000001 15110.238434988674
6.54000000000001 15112.967549340297
6.57000000000001 15118.077560922238
6.60000000000001 15125.14127346782
6.6300000000000106 15133.573794888767
6.660000000000011 15142.700002717696
6.690000000000011 15151.826409226082
6.720000000000011 15160.309490064506
6.7500000000000115 15167.61421358825
6.780000000000012 15173.357513909381
6.810000000000012 15177.3342924374
6.840000000000012 15179.524544270225
6.8700000000000125 15180.083268607988
6.900000000000013 15179.314687757604
6.930000000000013 15177.633032924188
6.960000000000013 15175.515719620658
6.9900000000000135 15173.4539212091
7.020000000000014 15171.904752939736
7.050000000000014 15171.250044142871
7.080000000000014 15171.7644475322
7.1100000000000145 15173.595849265774
7.140000000000015 15176.759119842629
7.170000000000015 15181.142213373481
7.200000000000015 15186.52418171427
7.2300000000000155 15192.602290877032
7.260000000000016 15199.025213652247
7.290000000000016 15205.428892128271
7.320000000000016 15211.47171870137
7.3500000000000165 15216.865685879136
7.380000000000017 15221.401095170106
7.410000000000017 15224.962334557762
7.440000000000017 15227.53413347141
7.4700000000000175 15229.197681990383
7.500000000000018 15230.117898186843
7.530000000000018 15230.523345448915
7.560000000000018 15230.681131077734
7.5900000000000185 15230.869354748322
7.620000000000019 15231.34978854276
7.650000000000019 15232.343172970568
7.680000000000019 15234.00932673968
7.7100000000000195 15236.434197922286
7.74000000000002 15239.624588574581
7.77000000000002 15243.510902534279
7.80000000000002 15247.957009947439
7.8300000000000205 15252.775868389206
7.860000000000021 15257.750007936733
7.890000000000021 15262.654440960803
7.920000000000021 15267.279307565677
7.9500000000000215 15271.450133134245
7.980000000000022 15275.043737666518
8.010000000000021 15277.998482707942
8.04000000000002 15280.317982243594
8.07000000000002 15282.06822074745
8.10000000000002 15283.368644792192
8.130000000000019 15284.378221070074
8.160000000000018 15285.277931131823
8.190000000000017 15286.251512750616
8.220000000000017 15287.46649284485
8.250000000000016 15289.057632825254
8.280000000000015 15291.114327593892
8.310000000000015 15293.67319424285
8.340000000000014 15296.716161430166
8.370000000000013 15300.174234698443
8.400000000000013 15303.936560927606
8.430000000000012 15307.863220644305
8.460000000000012 15311.800916506601
8.49000000000001 15315.599369216656
8.52000000000001 15319.127386547012
8.55000000000001 15322.285990026465
8.580000000000009 15325.017335313103
8.610000000000008 15327.309349804804
8.640000000000008 15329.19520830879
8.670000000000007 15330.748284476005
8.700000000000006 15332.07295878928
8.730000000000006 15333.292708461948
8.760000000000005 15334.536337462283
8.790000000000004 15335.924078448992
8.820000000000004 15337.554959627625
8.850000000000003 15339.497210187865
8.880000000000003 15341.782351288683
8.910000000000002 15344.40344163102
8.940000000000001 15347.31737362918
8.97 15350.450819856555
9.0 15353.709652369827
9.03 15356.990367435572
9.059999999999999 15360.191781580144
9.089999999999998 15363.226238861953
9.119999999999997 15366.028492636437
9.149999999999997 15368.562611069694
9.179999999999996 15370.825100067841
9.209999999999996 15372.843843992625
9.239999999999995 15374.67385056072
9.269999999999994 15376.390553154175
9.299999999999994 15378.080870694786
9.329999999999993 15379.8333381743
9.359999999999992 15381.72892201349
9.389999999999992 15383.833208166825
9.419999999999991 15386.189888071433
9.44999999999999 15388.81668412131
9.47999999999999 15391.704519165994
9.50999999999999 15394.819648566769
9.539999999999988 15398.108606447913
9.569999999999988 15401.505300605715
9.599999999999987 15404.939352081574
9.629999999999987 15408.344128698463
9.659999999999986 15411.663484584493
9.689999999999985 15414.856753073054
9.719999999999985 15417.902772816517
9.749999999999984 15420.801509032146
9.779999999999983 15423.573531333122
9.809999999999983 15426.255870280407
9.839999999999982 15428.896313192365
9.869999999999981 15431.547255186293
9.89999999999998 15434.259193465183
9.92999999999998 15437.075844167886
9.95999999999998 15440.029076654644
9.989999999999979 15443.135045769222
10.019999999999978 14227.448402967853
10.049999999999978 11416.507201150607
10.079999999999977 7461.1845227078375
10.109999999999976 2918.3801340953046
10.139999999999976 -1622.3690484405463
10.169999999999975 -5612.721842397037
10.199999999999974 -8609.079018320466
10.229999999999974 -10318.537960245492
10.259999999999973 -10623.138757088525
10.289999999999973 -9581.299414888477
10.319999999999972 -7408.168857703213
10.349999999999971 -4438.866305907645
10.37999999999997 -1080.2368003790364
10.40999999999997 2242.3993105703885
10.43999999999997 5136.957529808272
10.469999999999969 7288.868374031541
10.499999999999968 8493.252124515162
10.529999999999967 8671.971399104379
10.559999999999967 7874.422656129691
10.589999999999966 6262.977988470997
10.619999999999965 4085.734496747711
10.649999999999965 1640.716290583575
10.679999999999964 -763.4937176872677
10.709999999999964 -2845.5712651661242
10.739999999999963 -4383.147690808596
10.769999999999962 -5234.951439587754
10.799999999999962 -5351.462968079019
10.829999999999961 -4773.724003598134
10.85999999999996 -3621.4793890557685
10.88999999999996 -2072.933595753906
10.919999999999959 -339.2389100165291
10.949999999999958 1362.8643496288507
10.979999999999958 2836.9033031861127
11.009999999999957 3928.1280685634074
11.039999999999957 4538.397994012709
11.069999999999956 4633.273131908594
11.099999999999955 4241.064855028772
11.129999999999955 3444.603965580403
11.159999999999954 2367.2422922698865
11.189999999999953 1155.2214838503332
11.219999999999953 -41.222214929902
11.249999999999952 -1085.6781333124018
11.279999999999951 -1870.2971966431012
11.30999999999995 -2325.9686495072447
11.33999999999995 -2427.1407247428237
11.36999999999995 -2191.1750649427136
11.399999999999949 -1672.7894794920476
11.429999999999948 -954.6438832678932
11.459999999999948 -135.50331218542104
11.489999999999947 682.4521255888735
11.519999999999946 1405.6373182185966
11.549999999999946 1959.0663157019749
11.579999999999945 2293.362761484049
11.609999999999944 2388.236702367307
11.639999999999944 2252.323765615579
11.669999999999943 1919.729886772751
11.699999999999942 1443.962912658518
11.729999999999942 890.1825626493273
11.759999999999941 326.80389855995645
11.78999999999994 -182.53594319949386
11.81999999999994 -585.7510066081063
11.84999999999994 -847.1728133692789
11.879999999999939 -950.1219677024129
11.909999999999938 -897.1038878503233
11.939999999999937 -707.8213030793464
11.969999999999937 -415.4287529256352
11.999999999999936 -61.616319894238025
12.029999999999935 308.81449699556345
12.059999999999935 653.2260338676201
12.089999999999934 935.6877418644705
12.119999999999933 1130.3477944400713
12.149999999999933 1223.3653625426855
12.179999999999932 1213.3284594125334
12.209999999999932 1110.25676483935
12.239999999999931 933.4376171463553
12.26999999999993 708.4504640326362
12.29999999999993 463.78621637181124
12.329999999999929 227.47076137565585
12.359999999999928 24.064457450193927
12.389999999999928 -127.6716549908208
12.419999999999927 -216.25387233879763
12.449999999999926 -238.02208251617262
12.479999999999926 -196.78617265379114
12.509999999999925 -102.70339300653441
12.539999999999925 29.412451537008806
12.569999999999924 182.1136259223142
12.599999999999923 337.41728395932915
12.629999999999923 478.7503723861389
12.659999999999922 592.547909382818
12.689999999999921 669.3735766412555
12.71999999999992 704.4946105605366
12.74999999999992 697.9102749699614
12.77999999999992 653.8902328755514
12.809999999999919 580.1244193251817
12.839999999999918 486.6107660306044
12.869999999999918 384.42301756896495
12.899999999999917 284.49507986045217
12.929999999999916 196.54097030831122
12.959999999999916 128.20441974042672
12.989999999999915 84.49660971270812
13.019999999999914 67.54711342576144
13.049999999999914 76.66122036680156
13.079999999999913 108.64382695147656
13.109999999999912 158.3322306901643
13.139999999999912 219.2648955332508
13.169999999999911 284.4098581003535
13.19999999999991 346.8794886831878
13.22999999999991 400.567398073389
13.25999999999991 440.6575794752318
13.289999999999909 463.97163490400794
13.319999999999908 469.14012652753036
13.349999999999907 456.59799304559976
13.379999999999907 428.4152357010315
13.409999999999906 387.9930587409585
13.439999999999905 339.6644746490734
13.469999999999905 288.23567967550815
13.499999999999904 238.5128818750386
13.529999999999903 194.8582751652475
13.559999999999903 160.81134160535947
13.589999999999902 138.80357467479868
13.619999999999902 129.98799944961146
13.6499999999999 134.1922761250234
13.6799999999999 149.99685171850206
13.7099999999999 174.9250646112203
13.739999999999899 205.7250231621903
13.769999999999898 238.71287370666852
13.799999999999898 270.14413215813994
13.829999999999897 296.5802633219641
13.859999999999896 315.21422325485526
13.889999999999896 324.12440243104743
13.919999999999895 322.43813808379696
13.949999999999894 310.3871952120936
13.979999999999894 289.25008419244944
14.009999999999893 261.1923488939692
14.039999999999893 229.02219049467146
14.069999999999892 195.88685631569416
14.099999999999891 164.9390671015118
14.12999999999989 139.01453787221294
14.15999999999989 120.34749263277146
14.18999999999989 110.35638607160718
14.219999999999889 109.51856199119146
14.249999999999888 117.34812885942296
14.279999999999887 132.47408082862603
14.309999999999887 152.80937186948822
14.339999999999886 175.79062109826663
14.369999999999886 198.6663304766576
14.399999999999885 218.79688966538356
14.429999999999884 233.93141079012264
14.459999999999884 242.43944407707596
14.489999999999883 243.46872943204653
14.519999999999882 237.01150957511652
14.549999999999882 223.87611242047336
14.579999999999881 205.57603089241758
14.60999999999988 184.14281584909799
14.63999999999988 161.88677625247828
14.66999999999988 141.13238338028026
14.699999999999878 123.96623526641446
14.729999999999878 112.01829714517116
14.759999999999877 106.29858043054381
14.789999999999877 107.10573728817613
14.819999999999876 114.01848373884734
14.849999999999875 125.96848072801848
14.879999999999875 141.3816277129879
14.909999999999874 158.37236915839108
14.939999999999873 174.96451171387824
14.969999999999873 189.313888179
14.999999999999872 199.9069728983979
15.029999999999871 205.71474602275765
15.05999999999987 206.29039709734613
15.08999999999987 201.794913784849
15.11999999999987 192.95609971611432
15.149999999999869 180.96515657247244
15.179999999999868 167.3251831462432
15.209999999999868 153.66819994337473
15.239999999999867 141.5636723875769
15.269999999999866 132.34677001368158
15.299999999999866 126.9816898137053
15.329999999999865 125.96953502425043
15.359999999999864 129.31230593424888
15.389999999999864 136.53436463572456
15.419999999999863 146.75077468909691
15.449999999999863 158.78481766640647
15.479999999999862 171.3126889203099
15.509999999999861 183.01922454016733
15.53999999999986 192.74516893990253
15.56999999999986 199.61286326634223
15.59999999999986 203.1094050001859
15.629999999999859 203.12426508930048
15.659999999999858 199.94159790988633
15.689999999999857 194.18947578246915
15.719999999999857 186.75322772415294
15.749999999999856 178.66211263792343
15.779999999999855 170.96679700889933
15.809999999999855 164.61785291566596
15.839999999999854 160.3640661231973
15.869999999999854 158.67875821542899
15.899999999999853 159.7195717682987
15.929999999999852 163.32756066274004
15.959999999999852 169.06143838722897
15.989999999999851 176.26009360953236
16.01999999999985 184.12767377597083
16.04999999999985 191.8309896044412
16.079999999999853 198.59691076105042
16.109999999999854 203.79783712390653
16.139999999999855 207.01680127186154
16.169999999999856 208.08441108317948
16.199999999999857 207.08663310845088
