# Results for "element" with Id # 1478094 for search config "initial" at position: x0: -18.9526315789; y0: -20.5473684211; z0: 167.6667
# time PRESSURE
0.03 1368.0950158608562
0.06 3912.3730850739635
0.09 7348.428932390885
0.12 11325.698216363719
0.15 15460.345966896759
0.18 19370.268301601525
0.21 22708.865090161915
0.24 25194.752560396675
0.27 26634.97826217191
0.30000000000000004 26939.77755923426
0.33000000000000007 26127.568552591656
0.3600000000000001 24319.73703781808
0.3900000000000001 21725.769124490856
0.42000000000000015 18620.31239528314
0.4500000000000002 15314.635910778441
0.4800000000000002 12125.555352686559
0.5100000000000002 9345.088852397432
0.5400000000000003 7213.887839027798
0.5700000000000003 5900.9038144078095
0.6000000000000003 5490.928771703263
0.6300000000000003 5980.720608604408
0.6600000000000004 7283.539296043435
0.6900000000000004 9241.149248497532
0.7200000000000004 11641.76626984849
0.7500000000000004 14242.025580341922
0.7800000000000005 16790.832553653065
0.8100000000000005 19052.905315319935
0.8400000000000005 20829.923274002653
0.8700000000000006 21977.45631425455
0.9000000000000006 22416.255314860824
0.9300000000000006 22137.02613232546
0.9600000000000006 21198.429239025627
0.9900000000000007 19718.71116172112
1.0200000000000007 17861.978353733844
1.0500000000000007 15820.638089784665
1.0800000000000007 13795.863327117393
1.1100000000000008 11978.071413957372
1.1400000000000008 10529.321211914512
1.1700000000000008 9569.248331832856
1.2000000000000008 9165.722308684124
1.2300000000000009 9330.87212397722
1.260000000000001 10022.573178117147
1.290000000000001 11150.96009224379
1.320000000000001 12589.0957082116
1.350000000000001 14186.600230300874
1.380000000000001 15784.848223493134
1.410000000000001 17232.27315848715
1.440000000000001 18398.37236438516
1.470000000000001 19185.171133538697
1.500000000000001 19535.165715404975
1.5300000000000011 19435.11545781512
1.5600000000000012 18915.45313484277
1.5900000000000012 18045.508925047307
1.6200000000000012 16925.15771072977
1.6500000000000012 15673.830705563725
1.6800000000000013 14418.080751993288
1.7100000000000013 13278.993181654947
1.7400000000000013 12360.698871774843
1.7700000000000014 11741.076643385051
1.8000000000000014 11465.459116794334
1.8300000000000014 11543.807422198315
1.8600000000000014 11951.45567711485
1.8900000000000015 12633.16565502439
1.9200000000000015 13509.929223325233
1.9500000000000015 14487.727849209969
1.9800000000000015 15467.313223413395
2.0100000000000016 16354.027460601084
2.0400000000000014 17066.72489787655
2.070000000000001 17544.984584353148
2.100000000000001 17753.995262954362
2.130000000000001 17686.74356811505
2.1600000000000006 17363.403323405735
2.1900000000000004 16828.10419919761
2.22 16143.504960568722
2.25 15383.796515558739
2.28 14626.894659482694
2.3099999999999996 13946.629470018308
2.3399999999999994 13405.705132950705
2.369999999999999 13050.090090235242
2.399999999999999 12905.325182297922
2.429999999999999 12975.01930806178
2.4599999999999986 13241.575920010397
2.4899999999999984 13668.967236369434
2.5199999999999982 14207.183470377628
2.549999999999998 14797.840057099242
2.579999999999998 15380.33546322162
2.6099999999999977 15897.929269029855
2.6399999999999975 16303.145721867704
2.6699999999999973 16562.00122752899
2.699999999999997 16656.692416916274
2.729999999999997 16586.548794839295
2.7599999999999967 16367.236347686565
2.7899999999999965 16028.374710400083
2.8199999999999963 15609.88312381671
2.849999999999996 15157.482757964897
2.879999999999996 14717.850130751436
2.9099999999999957 14333.9254142758
2.9399999999999955 14040.838711248245
2.9699999999999953 13862.830043082258
2.999999999999995 13811.418047195377
3.029999999999995 13884.934273948722
3.0599999999999947 14069.395093167586
3.0899999999999945 14340.553282829977
3.1199999999999943 14666.86078412877
3.149999999999994 15013.00059988741
3.179999999999994 15343.605451314945
3.2099999999999937 15626.783755174085
3.2399999999999936 15837.111390639917
3.2699999999999934 15957.818625835747
3.299999999999993 15981.995762305281
3.329999999999993 15912.747084919789
3.3599999999999928 15762.33385341061
3.3899999999999926 15550.444516251526
3.4199999999999924 15301.81385501874
3.449999999999992 15043.464770266395
3.479999999999992 14801.871874798939
3.509999999999992 14600.337400731436
3.5399999999999916 14456.83198113082
3.5699999999999914 14382.492379196288
3.599999999999991 14380.89139618601
3.629999999999991 14448.109333979337
3.659999999999991 14573.554665235388
3.6899999999999906 14741.409427305764
3.7199999999999904 14932.517626984323
3.7499999999999902 15126.502121950125
3.77999999999999 15303.883345563283
3.80999999999999 15447.986245704402
3.8399999999999896 15546.455466342586
3.8699999999999894 15592.24795196221
3.8999999999999893 15584.032017662612
3.929999999999989 15525.98726744079
3.959999999999989 15427.059447119142
3.9899999999999887 15299.7771398936
4.019999999999989 15158.775995424958
4.049999999999989 15019.19659164863
4.079999999999989 14895.126263760318
4.10999999999999 14798.240192786076
4.13999999999999 14736.767803492932
4.16999999999999 14714.869870515224
4.19999999999999 14732.464947535767
4.229999999999991 14785.495366834704
4.259999999999991 14866.580167305192
4.289999999999991 14965.964357817093
4.319999999999991 15072.650564205876
4.349999999999992 15175.5874150174
4.379999999999992 15264.790245867847
4.409999999999992 15332.284640926173
4.439999999999992 15372.787913333019
4.469999999999993 15384.075426378979
4.499999999999993 15367.014028992657
4.529999999999993 15325.280217462128
4.559999999999993 15264.810792166729
4.589999999999994 15193.058939055387
4.619999999999994 15118.14359340928
4.649999999999994 15047.985280238388
4.679999999999994 14989.516851848784
4.709999999999995 14948.045127868785
4.739999999999995 14926.818324065614
4.769999999999995 14926.830200199109
4.799999999999995 14946.865426391281
4.829999999999996 14983.766652253455
4.859999999999996 15032.880947733918
4.889999999999996 15088.628777804692
4.919999999999996 15145.129602680387
4.949999999999997 15196.8167555031
4.979999999999997 15238.980156009071
5.009999999999997 15268.186188482423
5.039999999999997 15282.539725387323
5.069999999999998 15281.773256122173
5.099999999999998 15267.165191082235
5.129999999999998 15241.306461285792
5.159999999999998 15207.750233201374
5.189999999999999 15170.587728294733
5.219999999999999 15133.998277439796
5.249999999999999 15101.821022377575
5.279999999999999 15077.190789091686
5.31 15062.27009258767
5.34 15058.096986480676
5.37 15064.557933244321
5.4 15080.479263714798
5.430000000000001 15103.818554437103
5.460000000000001 15131.93081755851
5.490000000000001 15161.877027680588
5.520000000000001 15190.74026734176
5.550000000000002 15215.917635833459
5.580000000000002 15235.360523507872
5.610000000000002 15247.741163269915
5.640000000000002 15252.534863970508
5.670000000000003 15250.015835994069
5.700000000000003 15241.173308133642
5.730000000000003 15227.561819437662
5.760000000000003 15211.105214320587
5.790000000000004 15193.877464288802
5.820000000000004 15177.884246938407
5.850000000000004 15164.867344219096
5.880000000000004 15156.149770173422
5.910000000000005 15152.534292176206
5.940000000000005 15154.260915419127
5.970000000000005 15161.023488953548
6.000000000000005 15172.039401568347
6.030000000000006 15186.162129538865
6.060000000000006 15202.021568194476
6.090000000000006 15218.176229060327
6.120000000000006 15233.260957024348
6.150000000000007 15246.116442702922
6.180000000000007 15255.888857725002
6.210000000000007 15262.09149898125
6.240000000000007 15264.626284878063
6.270000000000008 15263.765028028718
6.300000000000008 15260.095933904677
6.330000000000008 15254.443135076019
6.360000000000008 15247.768898931285
6.390000000000009 15241.069077946946
6.420000000000009 15235.273462103798
6.450000000000009 15231.160383500985
6.480000000000009 15229.291602102649
6.51000000000001 15229.972678431135
6.54000000000001 15233.242217532796
6.57000000000001 15238.886737997876
6.60000000000001 15246.479113857447
6.6300000000000106 15255.434845115995
6.660000000000011 15265.079464358645
6.690000000000011 15274.720184852518
6.720000000000011 15283.714084931562
6.7500000000000115 15291.526568686893
6.780000000000012 15297.774867825005
6.810000000000012 15302.254125115034
6.840000000000012 15304.944545504033
6.8700000000000125 15306.001174521165
6.900000000000013 15305.728028276997
6.930000000000013 15304.538966957654
6.960000000000013 15302.91099679257
6.9900000000000135 15301.33491473553
7.020000000000014 15300.267546790403
7.050000000000014 15300.090571482933
7.080000000000014 15301.078648516761
7.1100000000000145 15303.37979813269
7.140000000000015 15307.009129183278
7.170000000000015 15311.854957347621
7.200000000000015 15317.696803607621
7.2300000000000155 15324.232486188605
7.260000000000016 15331.111277141845
7.290000000000016 15337.969726471587
7.320000000000016 15344.466810238146
7.3500000000000165 15350.315043214625
7.380000000000017 15355.305140840754
7.410000000000017 15359.321778783655
7.440000000000017 15362.349849091928
7.4700000000000175 15364.470639936008
7.500000000000018 15365.849151214336
7.530000000000018 15366.714047610261
7.560000000000018 15367.332576277277
7.5900000000000185 15367.983008556084
7.620000000000019 15368.927292740165
7.650000000000019 15370.386384386962
7.680000000000019 15372.52039105643
7.7100000000000195 15375.415599051794
7.74000000000002 15379.07916351561
7.77000000000002 15383.441836856624
7.80000000000002 15388.367802543593
7.8300000000000205 15393.670335841303
7.860000000000021 15399.132249470691
7.890000000000021 15404.528762567608
7.920000000000021 15409.650116593351
7.9500000000000215 15414.321837153379
7.980000000000022 15418.42066145821
8.010000000000021 15421.884844343236
8.04000000000002 15424.717893360183
8.07000000000002 15426.985684745312
8.10000000000002 15428.80757499146
8.130000000000019 15430.34246684185
8.160000000000018 15431.771293433303
8.190000000000017 15433.277775292368
8.220000000000017 15435.029465005879
8.250000000000016 15437.161177042444
8.280000000000015 15439.762387305325
8.310000000000015 15442.869796023188
8.340000000000014 15446.465425815695
8.370000000000013 15450.480381195484
8.400000000000013 15454.803877679786
8.430000000000012 15459.296052304631
8.460000000000012 15463.803637950848
8.49000000000001 15468.17637551501
8.52000000000001 15472.283004188792
8.55000000000001 15476.024393460075
8.580000000000009 15479.342547969065
8.610000000000008 15482.22526592689
8.640000000000008 15484.705644021107
8.670000000000007 15486.857002284234
8.700000000000006 15488.783687568479
8.730000000000006 15490.609078435096
8.760000000000005 15492.461803834582
8.790000000000004 15494.461915452874
8.820000000000004 15496.708276995378
8.850000000000003 15499.268940341926
8.880000000000003 15502.175200673326
8.910000000000002 15505.41982479357
8.940000000000001 15508.959373467374
8.97 15512.720223402368
9.0 15516.60794445855
9.03 15520.518640860058
9.059999999999999 15524.350676844515
9.089999999999998 15528.015862145392
9.119999999999997 15531.448420916595
9.149999999999997 15534.611866471192
9.179999999999996 15537.502102817973
9.209999999999996 15540.146426464324
9.239999999999995 15542.599303247287
9.269999999999994 15544.935660620486
9.299999999999994 15547.242021801198
9.329999999999993 15549.60662033694
9.359999999999992 15552.110135313016
9.389999999999992 15554.817761365644
9.419999999999991 15557.772743741445
9.44999999999999 15560.992413449603
9.47999999999999 15564.467408970328
9.50999999999999 15568.16382328414
9.539999999999988 15572.028138508585
9.569999999999988 15575.994254668734
9.599999999999987 15579.991793851665
9.629999999999987 15583.95413187573
9.659999999999986 15587.825180319252
9.689999999999985 15591.564519350459
9.719999999999985 15595.151367145147
9.749999999999984 15598.58615045091
9.779999999999983 15601.88991635355
9.809999999999983 15605.100260594752
9.839999999999982 15608.265703758956
9.869999999999981 15611.439503058542
9.89999999999998 15614.673160164071
9.92999999999998 15618.011275650651
9.95999999999998 15621.486505918083
9.989999999999979 15625.11585579587
10.019999999999978 14406.702320082159
10.049999999999978 11589.302009377629
10.079999999999977 7625.639218210319
10.109999999999976 3074.338437577936
10.139999999999976 -1473.7835111991114
10.169999999999975 -5469.649712080394
10.199999999999974 -8469.419354369942
10.229999999999974 -10180.319168404805
10.259999999999973 -10484.746699409216
10.289999999999973 -9441.57728397794
10.319999999999972 -7266.421277598102
10.349999999999971 -4294.8095607153255
10.37999999999997 -933.9319558785338
10.40999999999997 2390.6071056893634
10.43999999999997 5286.490602213989
10.469999999999969 7438.969032173968
10.499999999999968 8643.050129088033
10.529999999999967 8820.575008953198
10.559999999999967 8021.029603101844
10.589999999999966 6406.989007128311
10.619999999999965 4226.845746935012
10.649999999999965 1778.9688784623734
10.679999999999964 -627.7196564125599
10.709999999999964 -2711.6172189154627
10.739999999999963 -4250.179778304371
10.769999999999962 -5102.085966026402
10.799999999999962 -5217.892137280656
10.829999999999961 -4638.821289791661
10.85999999999996 -3484.869872388771
10.88999999999996 -1934.5210890430076
10.919999999999959 -199.18967468520162
10.949999999999958 1504.1748266334046
10.979999999999958 2978.9687308923235
11.009999999999957 4070.400507193065
11.039999999999957 4680.373866620046
11.069999999999956 4774.563897747614
11.099999999999955 4381.443802220015
11.129999999999955 3584.026028845385
11.159999999999954 2505.837380111631
11.189999999999953 1293.265166718947
11.219999999999953 96.64584919526011
11.249999999999952 -947.5634325793196
11.279999999999951 -1731.5215721003083
11.30999999999995 -2186.174185757813
11.33999999999995 -2286.0627773926353
11.36999999999995 -2048.663649666254
11.399999999999949 -1528.8151854848522
11.429999999999948 -809.2887737756212
11.459999999999948 11.06119701445135
11.489999999999947 829.9970436321811
11.519999999999946 1553.9120248428956
11.549999999999946 2107.832886470218
11.579999999999945 2442.4258295648046
11.609999999999944 2537.464430837973
11.639999999999944 2401.6590606254554
11.669999999999943 2069.1919981191363
11.699999999999942 1593.638921441519
11.729999999999942 1040.2105699560689
11.759999999999941 477.3502789703522
11.78999999999994 -31.30124760506109
11.81999999999994 -433.6788664509409
11.84999999999994 -694.1547159172131
11.879999999999939 -796.1031857439893
11.909999999999938 -742.0888393264785
11.939999999999937 -551.8709963584511
11.969999999999937 -258.6508941398627
11.999999999999936 95.84993611914304
12.029999999999935 466.8167558983793
12.059999999999935 811.6170043000699
12.089999999999934 1094.3413753495531
12.119999999999933 1289.1712379248343
12.149999999999933 1382.3057478378714
12.179999999999932 1372.3741745761756
12.209999999999932 1269.4336920143046
12.239999999999931 1092.8009816132337
12.26999999999993 868.0736738062077
12.29999999999993 623.7483751759927
12.329999999999929 387.84463736742725
12.359999999999928 184.90635456866548
12.389999999999928 33.671107896720414
12.419999999999927 -54.40415832707723
12.449999999999926 -75.6855800710633
12.479999999999926 -34.00554970253851
12.509999999999925 60.462807098798734
12.539999999999925 192.89830223452958
12.569999999999924 345.8546666755414
12.599999999999923 501.35865682194935
12.629999999999923 642.8533056828843
12.659999999999922 756.7937026445471
12.689999999999921 833.764821879634
12.71999999999992 869.0539315184691
12.74999999999992 862.676927404601
12.77999999999992 818.915303629963
12.809999999999919 745.4652253376222
12.839999999999918 652.3251502778792
12.869999999999918 550.5641780977564
12.899999999999917 451.1075686247009
12.929999999999916 363.658217632666
12.959999999999916 295.84799083691695
12.989999999999915 252.67723516840985
13.019999999999914 236.26724568283504
13.049999999999914 245.91856008804405
13.079999999999913 278.43530179227804
13.109999999999912 328.6578832712018
13.139999999999912 390.1311429453605
13.169999999999911 455.8316159241908
13.19999999999991 518.880945191037
13.22999999999991 573.1815533738634
13.25999999999991 613.924781367971
13.289999999999909 637.937455171992
13.319999999999908 643.852670528401
13.349999999999907 632.1048768158072
13.379999999999907 604.7609864022493
13.409999999999906 565.2171217892073
13.439999999999905 517.7994728066216
13.469999999999905 467.3063777273176
13.499999999999904 418.5361235763415
13.529999999999903 375.8436814986005
13.559999999999903 342.76258579300924
13.589999999999902 321.71996700239566
13.619999999999902 313.866117459854
13.6499999999999 319.02741158793685
13.6799999999999 335.78414510161394
13.7099999999999 361.66016057148033
13.739999999999899 393.40392575397243
13.769999999999898 427.3313606221107
13.799999999999898 459.69696020330105
13.829999999999897 487.05993918710277
13.859999999999896 506.61002609343905
13.889999999999896 516.4217025596616
13.919999999999895 515.6177197628647
13.949999999999894 504.4248491305994
13.979999999999894 484.1168816056839
14.009999999999893 456.8552285820238
14.039999999999893 425.44441579861586
14.069999999999892 393.0291126966012
14.099999999999891 362.76104530925704
14.12999999999989 337.4760971990304
14.15999999999989 319.4099730849039
14.18999999999989 309.983505955877
14.219999999999889 309.67704016093677
14.249999999999888 318.0080861081146
14.279999999999887 333.6091979204642
14.309999999999887 354.3965782886516
14.339999999999886 377.80967907040207
14.369999999999886 401.09901025710104
14.399999999999885 421.626025612877
14.429999999999884 437.14036924174655
14.459999999999884 446.0113181883501
14.489999999999883 447.38539908379363
14.519999999999882 441.25304232311316
14.549999999999882 428.42098383863356
14.579999999999881 410.40131802996166
14.60999999999988 389.22457295800297
14.63999999999988 367.2005582463764
14.66999999999988 346.65424745750425
14.699999999999878 329.6729683250709
14.729999999999878 317.88716244385165
14.759999999999877 312.3069542105818
14.789999999999877 313.23109971768355
14.819999999999876 320.2386391475064
14.849999999999875 332.26156384935484
14.879999999999875 347.72602375483063
14.909999999999874 364.746256013779
14.939999999999873 381.34544579282556
14.969999999999873 395.67861528992637
14.999999999999872 406.2314416024548
15.029999999999871 411.97444095899095
15.05999999999987 412.46038687083495
15.08999999999987 407.85006347947683
15.11999999999987 398.8710782047011
15.149999999999869 386.71433191017735
15.179999999999868 372.8825899654921
15.209999999999868 359.0079333360842
15.239999999999867 346.6608932080266
15.269999999999866 337.17814923124575
15.299999999999866 331.5250548174023
15.329999999999865 330.2033325185753
15.359999999999864 333.21500793057925
15.389999999999864 340.08398388725044
15.419999999999863 349.92558823770247
15.449999999999863 361.5641696779006
15.479999999999862 373.67772905102504
15.509999999999861 384.9531919563895
15.53999999999986 394.2333474707883
15.56999999999986 400.64199572347326
15.59999999999986 403.6673725780048
15.629999999999859 403.20020781655955
15.659999999999858 399.52622084197463
15.689999999999857 393.2751804319968
15.719999999999857 385.33398958924005
15.749999999999856 376.7334190455264
15.779999999999855 368.52542494602983
15.809999999999855 361.66211925605177
15.839999999999854 356.8937571514956
15.869999999999854 354.6945957796441
15.899999999999853 355.2225940755811
15.929999999999852 358.31854160688164
15.959999999999852 363.5401623816989
15.989999999999851 370.22499809882595
16.01999999999985 377.57591808004867
16.04999999999985 384.7586676873064
16.079999999999853 390.9991333304768
16.109999999999854 395.66862841175174
16.139999999999855 398.34877520308453
16.169999999999856 398.86857600575786
16.199999999999857 397.31205740939924
16.22999999999986 393.9931044104203
