# Results for "element" with Id # 1434974 for search config "initial" at position: x0: -30.1157894737; y0: -9.38421052632; z0: 167.6667
# time PRESSURE
0.03 1374.2745824768836
0.06 3930.0748348936972
0.09 7381.739286691071
0.12 11377.140254464051
0.15 15530.707514290236
0.18 19458.575339055926
0.21 22812.5031058263
0.24 25309.731127841573
0.27 26756.32356251082
0.30000000000000004 27062.02375256097
0.33000000000000007 26245.304166282
0.3600000000000001 24428.15115201126
0.3900000000000001 21821.137722215495
0.42000000000000015 18700.367811587155
0.4500000000000002 15378.774484486923
0.4800000000000002 12174.857745178453
0.5100000000000002 9382.152132900193
0.5400000000000003 7242.494058628778
0.5700000000000003 5925.570996096554
0.6000000000000003 5516.403217032883
0.6300000000000003 6011.470857386654
0.6600000000000004 7323.305619439538
0.6900000000000004 9292.588465977775
0.7200000000000004 11706.218826648696
0.7500000000000004 14319.419430848211
0.7800000000000005 16879.729379615834
0.8100000000000005 19150.686407733538
0.8400000000000005 20933.102340524616
0.8700000000000006 22082.09301359429
0.9000000000000006 22518.426616546196
0.9300000000000006 22233.298351036992
0.9600000000000006 21286.265162585845
0.9900000000000007 19796.752757092087
1.0200000000000007 17930.162830119505
1.0500000000000007 15880.133802587445
1.0800000000000007 13848.842968498615
1.1100000000000008 12027.365736699156
1.1400000000000008 10578.011805692691
1.1700000000000008 9620.260835637317
1.2000000000000008 9221.474819061797
1.2300000000000009 9393.019373750985
1.260000000000001 10091.871455028124
1.290000000000001 11227.259895421015
1.320000000000001 12671.453644599434
1.350000000000001 14273.48659894857
1.380000000000001 15874.414609959142
1.410000000000001 17322.63685026529
1.440000000000001 18487.873365278498
1.470000000000001 19272.564463677416
1.500000000000001 19619.724933013298
1.5300000000000011 19516.641776107706
1.5600000000000012 18994.20206546734
1.5900000000000012 18122.060412527448
1.6200000000000012 17000.26311287484
1.6500000000000012 15748.268560691165
1.6800000000000013 14492.545961336224
1.7100000000000013 13354.032747644074
1.7400000000000013 12436.695076034845
1.7700000000000014 11818.268112349178
1.8000000000000014 11543.984248919169
1.8300000000000014 11623.752392173483
1.8600000000000014 12032.892283043679
1.8900000000000015 12716.169444416664
1.9200000000000015 13594.575172205501
1.9500000000000015 14574.067581151208
1.9800000000000015 15555.342428133808
2.0100000000000016 16443.654359430948
2.0400000000000014 17157.75015634567
2.070000000000001 17637.10030263565
2.100000000000001 17846.805934491862
2.130000000000001 17779.80723718145
2.1600000000000006 17456.286417264997
2.1900000000000004 16920.44070837526
2.22 16235.049770305523
2.25 15474.463502025059
2.28 14716.773352697317
2.3099999999999996 14035.977618374378
2.3399999999999994 13494.918752945261
2.369999999999999 13139.65580372919
2.399999999999999 12995.762118737854
2.429999999999999 13066.81854518157
2.4599999999999986 13335.145284066442
2.4899999999999984 13764.587943661778
2.5199999999999982 14304.982951577069
2.549999999999998 14897.783397051206
2.579999999999998 15482.235372421068
2.6099999999999977 16001.472720302849
2.6399999999999975 16407.933612698507
2.6699999999999973 16667.596288193035
2.699999999999997 16762.669919999254
2.729999999999997 16692.544346142302
2.7599999999999967 16472.98551738824
2.7899999999999965 16133.74013276171
2.8199999999999963 15714.86634720843
2.849999999999996 15262.21970019887
2.879999999999996 14822.591204361204
2.9099999999999957 14439.003091480636
2.9399999999999955 14146.626901578667
2.9699999999999953 13969.70048761004
2.999999999999995 13919.69905327306
3.029999999999995 13994.876661906903
3.0599999999999947 14181.148942798129
3.0899999999999945 14454.157650641919
3.1199999999999943 14782.24664243661
3.149999999999994 15130.005869560715
3.179999999999994 15461.999494255899
3.2099999999999937 15746.297916698448
3.2399999999999936 15957.471694892402
3.2699999999999934 16078.776842910958
3.299999999999993 16103.355589405735
3.329999999999993 16034.382893342954
3.3599999999999928 15884.20059017731
3.3899999999999926 15672.578240935112
3.4199999999999924 15424.323570787239
3.449999999999992 15166.51692857996
3.479999999999992 14925.669662625565
3.509999999999992 14725.097357799641
3.5399999999999916 14582.760554772995
3.5699999999999914 14509.764924289753
3.599999999999991 14509.635781224864
3.629999999999991 14578.39563052612
3.659999999999991 14705.391677775124
3.6899999999999906 14874.748128532785
3.7199999999999904 15067.260632422207
3.7499999999999902 15262.517866858409
3.77999999999999 15441.023146365078
3.80999999999999 15586.102161549861
3.8399999999999896 15685.416977955172
3.8699999999999894 15731.955708824205
3.8999999999999893 15724.42731506627
3.929999999999989 15667.05651192964
3.959999999999989 15568.833439271693
3.9899999999999887 15442.325580687015
4.019999999999989 15302.198126502773
4.049999999999989 15163.609214552027
4.079999999999989 15040.650589081015
4.10999999999999 14944.989012641381
4.13999999999999 14884.834334153056
4.16999999999999 14864.319390835033
4.19999999999999 14883.330006956097
4.229999999999991 14937.774798449364
4.259999999999991 15020.241837964295
4.289999999999991 15120.951080403378
4.319999999999991 15228.888393403722
4.349999999999992 15332.995245971775
4.379999999999992 15423.289579742828
4.409999999999992 15491.808458013635
4.439999999999992 15533.287724371063
4.469999999999993 15545.525867212385
4.499999999999993 15529.414656673547
4.529999999999993 15488.654461106802
4.559999999999993 15429.202317521445
4.589999999999994 15358.526020977906
4.619999999999994 15284.752152208544
4.649999999999994 15215.801504734198
4.679999999999994 15158.600213527297
4.709999999999995 15118.442512128604
4.739999999999995 15098.559926006767
4.769999999999995 15099.927559970547
4.799999999999995 15121.311662599306
4.829999999999996 15159.538691770853
4.859999999999996 15209.943363845436
4.889999999999996 15266.938759765257
4.919999999999996 15324.642436874065
4.949999999999997 15377.4911961804
4.979999999999997 15420.783046429538
5.009999999999997 15451.095847312761
5.039999999999997 15466.547911735182
5.069999999999998 15466.885349869532
5.099999999999998 15453.398874040375
5.129999999999998 15428.689118755123
5.159999999999998 15396.31546597073
5.189999999999999 15360.371362623275
5.219999999999999 15325.034430158248
5.249999999999999 15294.13861354852
5.279999999999999 15270.810705289525
5.31 15257.203331894772
5.34 15254.344392286996
5.37 15262.110922156013
5.4 15279.321342324789
5.430000000000001 15303.927730585405
5.460000000000001 15333.282562851016
5.490000000000001 15364.447245216386
5.520000000000001 15394.508145604279
5.550000000000002 15420.867974267647
5.580000000000002 15441.48493457582
5.610000000000002 15455.038577443236
5.640000000000002 15461.01128105598
5.670000000000003 15459.683309618627
5.700000000000003 15452.048091054514
5.730000000000003 15439.662041893655
5.760000000000003 15424.448516051762
5.790000000000004 15408.478898275669
5.820000000000004 15393.754767579063
5.850000000000004 15382.012925012481
5.880000000000004 15374.571089187397
5.910000000000005 15372.226831206804
5.940000000000005 15375.215644617427
5.970000000000005 15383.228102457171
6.000000000000005 15395.479895762304
6.030000000000006 15410.824382318924
6.060000000000006 15427.89277542006
6.090000000000006 15445.246054687163
6.120000000000006 15461.522402150731
6.150000000000007 15475.566226797919
6.180000000000007 15486.527251724026
6.210000000000007 15493.921979224357
6.240000000000007 15497.654641571615
6.270000000000008 15497.99830723292
6.300000000000008 15495.541351094786
6.330000000000008 15491.106944795414
6.360000000000008 15485.655395381458
6.390000000000009 15480.180085459595
6.420000000000009 15475.608047403952
6.450000000000009 15472.714690715427
6.480000000000009 15472.059081104388
6.51000000000001 15473.944813015287
6.54000000000001 15478.409169791792
6.57000000000001 15485.238311120387
6.60000000000001 15494.005628348132
6.6300000000000106 15504.128020927348
6.660000000000011 15514.933125292571
6.690000000000011 15525.730388302014
6.720000000000011 15535.878867608699
6.7500000000000115 15544.845455620996
6.780000000000012 15552.248401721736
6.810000000000012 15557.883547525867
6.840000000000012 15561.731533617112
6.8700000000000125 15563.947317981962
6.900000000000013 15564.834164969094
6.930000000000013 15564.80473350775
6.960000000000013 15564.334707094964
6.9900000000000135 15563.913619284582
7.020000000000014 15563.997284227797
7.050000000000014 15564.966721526069
7.080000000000014 15567.09636890404
7.1100000000000145 15570.534433814775
7.140000000000015 15575.296569767988
7.170000000000015 15581.272020431486
7.200000000000015 15588.241503492009
7.2300000000000155 15595.904186105528
7.260000000000016 15603.91072648762
7.290000000000016 15611.89900927986
7.320000000000016 15619.529217347792
7.3500000000000165 15626.514868597333
7.380000000000017 15632.647334798983
7.410000000000017 15637.811582257958
7.440000000000017 15641.992416409827
7.4700000000000175 15645.270831529488
7.500000000000018 15647.81147883019
7.530000000000018 15649.842736459603
7.560000000000018 15651.631687075773
7.5900000000000185 15653.456569672835
7.620000000000019 15655.57939271794
7.650000000000019 15658.221314047762
7.680000000000019 15661.542884123985
7.7100000000000195 15665.631023258735
7.74000000000002 15670.493620889809
7.77000000000002 15676.062133331281
7.80000000000002 15682.201361639658
7.8300000000000205 15688.725233539448
7.860000000000021 15695.417173115642
7.890000000000021 15702.052822327185
7.920000000000021 15708.42256037346
7.9500000000000215 15714.35177967692
7.980000000000022 15719.71687115539
8.010000000000021 15724.4556717497
8.04000000000002 15728.57130901327
8.07000000000002 15732.129347945818
8.10000000000002 15735.24893764604
8.130000000000019 15738.088850901455
8.160000000000018 15740.829939700303
8.190000000000017 15743.655934665494
8.220000000000017 15746.734520152404
8.250000000000016 15750.200749109528
8.280000000000015 15754.144409933693
8.310000000000015 15758.602506130888
8.340000000000014 15763.557345709922
8.370000000000013 15768.940272558575
8.400000000000013 15774.640649189927
8.430000000000012 15780.518732196348
8.460000000000012 15786.421314488674
8.49000000000001 15792.198132126809
8.52000000000001 15797.717691123777
8.55000000000001 15802.88043768572
8.580000000000009 15807.627944129392
8.610000000000008 15811.947659475802
8.640000000000008 15815.872503757964
8.670000000000007 15819.475708817059
8.700000000000006 15822.861591435
8.730000000000006 15826.153398246752
8.760000000000005 15829.479514740251
8.790000000000004 15832.959753428268
8.820000000000004 15836.692781827682
8.850000000000003 15840.746431963456
8.880000000000003 15845.151697747384
8.910000000000002 15849.900927616394
8.940000000000001 15854.950186149843
8.97 15860.225441843875
9.0 15865.631868818087
9.03 15871.065000835177
9.059999999999999 15876.422480963207
9.089999999999998 15881.615201138771
9.119999999999997 15886.576513078953
9.149999999999997 15891.268981607249
9.179999999999996 15895.687441901173
9.209999999999996 15899.858157889394
9.239999999999995 15903.834656603969
9.269999999999994 15907.69102179259
9.299999999999994 15911.513187458611
9.329999999999993 15915.389012105265
9.359999999999992 15919.398869827337
9.389999999999992 15923.607431323418
9.419999999999991 15928.057256857144
9.44999999999999 15932.765032464577
9.47999999999999 15937.720914524947
9.50999999999999 15942.890721151489
9.539999999999988 15948.220878313048
9.569999999999988 15953.6453373877
9.599999999999987 15959.09379058787
9.629999999999987 15964.49971338197
9.659999999999986 15969.807241384893
9.689999999999985 15974.976531107732
9.719999999999985 15979.987607925843
9.749999999999984 15984.841828251425
9.779999999999983 15989.561161680867
9.809999999999983 15994.184265234695
9.839999999999982 15998.761016389566
9.869999999999981 16003.346265227225
9.89999999999998 16007.9933639628
9.92999999999998 16012.748529885483
9.95999999999998 16017.645803054922
9.989999999999979 16022.70357610122
10.019999999999978 14797.257105932444
10.049999999999978 11962.838699787064
10.079999999999977 7976.757103385949
10.109999999999976 3402.261278567675
10.139999999999976 -1166.0380295377358
10.169999999999975 -5176.597631080109
10.199999999999974 -8184.552930789699
10.229999999999974 -9897.356589324201
10.259999999999973 -10198.501566296109
10.289999999999973 -9148.398269936368
10.319999999999972 -6964.266150000133
10.349999999999971 -3983.086525752309
10.37999999999997 -613.244147895856
10.40999999999997 2718.720194070416
10.43999999999997 5619.786299493948
10.469999999999969 7774.727175952245
10.499999999999968 8978.325465871394
10.529999999999967 9152.496672165958
10.559999999999967 8347.134120043716
10.589999999999966 6725.538944881586
10.619999999999965 4537.070107177236
10.649999999999965 2081.169382169289
10.679999999999964 -332.2260450211813
10.709999999999964 -2420.7124617823133
10.739999999999963 -3961.276432104249
10.769999999999962 -4812.516694223354
10.799999999999962 -4925.290499457757
10.829999999999961 -4341.4332424517215
10.85999999999996 -3181.7532961934116
10.88999999999996 -1625.6102764607558
10.919999999999959 114.77356066655508
10.949999999999958 1821.8217662998222
10.979999999999958 3298.5589502070125
11.009999999999957 4390.106647973861
11.039999999999957 4998.5517936579345
11.069999999999956 5089.970683603764
11.099999999999955 4693.377260130478
11.129999999999955 3892.3761651817586
11.159999999999954 2811.0518382907076
11.189999999999953 1596.2430608486407
11.219999999999953 398.5823473968968
11.249999999999952 -645.3557432062385
11.279999999999951 -1427.7890175280127
11.30999999999995 -1879.8736713678832
11.33999999999995 -1976.4719652772872
11.36999999999995 -1735.438878379544
11.399999999999949 -1211.9972454531344
11.429999999999948 -489.2601814282215
11.459999999999948 333.65789002506847
11.489999999999947 1154.366873621114
11.519999999999946 1879.2242945605951
11.549999999999946 2433.3300495477
11.579999999999945 2767.513821915225
11.609999999999944 2861.773235440668
11.639999999999944 2725.0696396555
11.669999999999943 2391.830639296833
11.699999999999942 1915.8404934802008
11.729999999999942 1362.45753280068
11.759999999999941 800.1964631630384
11.78999999999994 292.69046063818655
11.81999999999994 -108.07677723746512
11.84999999999994 -366.61669164668876
11.879999999999939 -466.47883332223404
11.909999999999938 -410.41370557464836
11.939999999999937 -218.35302363136555
11.969999999999937 76.36484888198572
11.999999999999936 431.93188779287306
12.029999999999935 803.5051230926933
12.059999999999935 1148.480822864208
12.089999999999934 1431.0272981633912
12.119999999999933 1625.4380935212025
12.149999999999933 1718.0419834117706
12.179999999999932 1707.5977015381375
12.209999999999932 1604.275933376968
12.239999999999931 1427.4780293260405
12.26999999999993 1202.8491915339023
12.29999999999993 958.8937011347525
12.329999999999929 723.601660812936
12.359999999999928 521.457600338205
12.389999999999928 371.12031085598846
12.419999999999927 283.9604690245703
12.449999999999926 263.52997227968103
12.479999999999926 305.9283974160396
12.509999999999925 400.9365533746284
12.539999999999925 533.714028868077
12.569999999999924 686.8226257769529
12.599999999999923 842.3215603445367
12.629999999999923 983.704870271954
12.659999999999922 1097.4891442246662
12.689999999999921 1174.322618669807
12.71999999999992 1209.549887283104
12.74999999999992 1203.2318534526885
12.77999999999992 1159.678897390414
12.809999999999919 1086.5981357750882
12.839999999999918 993.9813993781677
12.869999999999918 892.8759906390525
12.899999999999917 794.1743273863634
12.929999999999916 707.5404720249342
12.959999999999916 640.5669646054303
12.989999999999915 598.2197555455393
13.019999999999914 582.595044059138
13.049999999999914 592.980242133644
13.079999999999913 626.1793417960513
13.109999999999912 677.0449442859535
13.139999999999912 739.1440619582338
13.169999999999911 805.4813708490917
13.19999999999991 869.2081405870382
13.22999999999991 924.2539784592145
13.25999999999991 965.8318845346057
13.289999999999909 990.7829332912107
13.319999999999908 997.7457475326239
13.349999999999907 987.1511847843954
13.379999999999907 961.05494240493
13.409999999999906 922.8363425432833
13.439999999999905 876.8004369158646
13.469999999999905 827.7222559723871
13.499999999999904 780.3775366458659
13.529999999999903 739.1018432083813
13.559999999999903 707.414392216445
13.589999999999902 687.7339705365057
13.619999999999902 681.2084349477886
13.6499999999999 687.6667099961322
13.6799999999999 705.6953382291415
13.7099999999999 732.8263136064819
13.739999999999899 765.8155615384801
13.769999999999898 800.9842564973462
13.799999999999898 834.5892270571592
13.829999999999897 863.187851115661
13.859999999999896 883.9644655127481
13.889999999999896 894.9856275323325
13.919999999999895 895.3639030593582
13.949999999999894 885.3144494926617
13.979999999999894 866.1000918529585
14.009999999999893 839.8727176339462
14.039999999999893 809.42898118942
14.069999999999892 777.9090402279508
14.099999999999891 748.464543353665
14.12999999999989 723.9341819721436
14.15999999999989 706.5595423394269
14.18999999999989 697.7693288857572
14.219999999999889 698.0533018381223
14.249999999999888 706.9394235126846
14.279999999999887 723.0709357679784
14.309999999999887 744.3733410282217
14.339999999999886 768.2932367891754
14.369999999999886 792.0850859842467
14.399999999999885 813.1110484810029
14.429999999999884 829.1195557519386
14.459999999999884 838.4767118377947
14.489999999999883 840.323813404265
14.519999999999882 834.6448965765792
14.549999999999882 822.2410453057821
14.579999999999881 804.6192764704399
14.60999999999988 783.8061397149386
14.63999999999988 762.108983130199
14.66999999999988 741.8529296490698
14.699999999999878 725.1263553694108
14.729999999999878 713.5605072720998
14.759999999999877 708.1657629441513
14.789999999999877 709.2412307402499
14.819999999999876 716.3667994691519
14.849999999999875 728.4753325547878
14.879999999999875 743.9936464360483
14.909999999999874 761.0355549418134
14.939999999999873 777.6228143627021
14.969999999999873 791.9085337234237
14.999999999999872 802.3764752335837
15.029999999999871 807.9958949945362
15.05999999999987 808.318249107572
15.08999999999987 803.5033594204372
15.11999999999987 794.2778627253033
15.149999999999869 781.8316464791742
15.179999999999868 767.6667383534649
15.209999999999868 753.4157743850831
15.239999999999867 740.652394531529
15.269999999999866 730.7175936492481
15.299999999999866 724.5801497650505
15.329999999999865 722.743617617051
15.359999999999864 725.2098977401562
15.389999999999864 731.5008664947952
15.419999999999863 740.7308956117477
15.449999999999863 751.725206791685
15.479999999999862 763.1648338647684
15.509999999999861 773.7410998619546
15.53999999999986 782.3016449014044
15.56999999999986 787.9738751146367
15.59999999999986 790.248659556737
15.629999999999859 789.0191273148996
15.659999999999858 784.5737299047056
15.689999999999857 777.5449628815542
15.719999999999857 768.8221339471775
15.749999999999856 759.4384492873701
15.779999999999855 750.448196601742
15.809999999999855 742.8070200427862
15.839999999999854 737.2690086897717
15.869999999999854 734.3111820626661
15.899999999999853 734.0925739696216
15.929999999999852 736.4534247239783
15.959999999999852 740.9487788040564
15.989999999999851 746.9122635575787
16.01999999999985 753.5429476159485
16.04999999999985 760.0036463020035
16.079999999999853 765.518007251395
16.109999999999854 769.4552924418036
16.139999999999855 771.3944286783873
16.169999999999856 771.1610596772894
16.199999999999857 768.8347399702864
16.22999999999986 764.7254661739426
16.25999999999986 759.3285955161873
16.28999999999986 753.2603699402437
