# Results for "element" with Id # 2866083 for search config "initial" at position: x0: -500; y0: 0; z0: 284.482758621
# time VELOCITY_X
0.03 0.007232152511795353
0.06 0.03030947554554323
0.09 0.07679807419133704
0.12 0.15204913098521808
0.15 0.25863731736785783
0.18 0.39619019099205954
0.21 0.5615295223845383
0.24 0.7490736282756933
0.27 0.9514461175894898
0.30000000000000004 1.160225788829305
0.33000000000000007 1.3667635919155954
0.3600000000000001 1.5629890663608021
0.3900000000000001 1.742131835423077
0.42000000000000015 1.8992937585874143
0.4500000000000002 2.0318234401386395
0.4800000000000002 2.1394653555656395
0.5100000000000002 2.224278665874646
0.5400000000000003 2.290343313136425
0.5700000000000003 2.3432907769126614
0.6000000000000003 2.389711913785643
0.6300000000000003 2.4365032935102313
0.6600000000000004 2.4902158992781676
0.6900000000000004 2.556466273957355
0.7200000000000004 2.6394610835839645
0.7500000000000004 2.7416729536957227
0.7800000000000005 2.8636898327196323
0.8100000000000005 3.0042435632967646
0.8400000000000005 3.1604071992328846
0.8700000000000006 3.32793611677278
0.9000000000000006 3.5017161657709304
0.9300000000000006 3.676273823120062
0.9600000000000006 3.846299164938461
0.9900000000000007 4.007132813576445
1.0200000000000007 4.155172825260592
1.0500000000000007 4.288166360756242
1.0800000000000007 4.405363052049701
1.1100000000000008 4.507521008408747
1.1400000000000008 4.596770906406721
1.1700000000000008 4.676357042507362
1.2000000000000008 4.750285214627503
1.2300000000000009 4.822914814833876
1.260000000000001 4.898535985216618
1.290000000000001 4.980972047844748
1.320000000000001 5.073243027039879
1.350000000000001 5.1773186450172135
1.380000000000001 5.293979596986788
1.410000000000001 5.422795186140531
1.440000000000001 5.562214499381618
1.470000000000001 5.709758133924245
1.500000000000001 5.862288842004578
1.5300000000000011 6.016333004922149
1.5600000000000012 6.168421087883042
1.5900000000000012 6.315414459579299
1.6200000000000012 6.454788243480889
1.6500000000000012 6.584844977220884
1.6800000000000013 6.704841285663793
1.7100000000000013 6.81501875009095
1.7400000000000013 6.916539743884808
1.7700000000000014 7.011338196531854
1.8000000000000014 7.101903098126744
1.8300000000000014 7.191018312372062
1.8600000000000014 7.281485430159725
1.8900000000000015 7.3758568073295585
1.9200000000000015 7.476203701312826
1.9500000000000015 7.5839399515670305
1.9800000000000015 7.699715490273094
2.0100000000000016 7.823386799377342
2.0400000000000014 7.954063939579996
2.070000000000001 8.090226639341635
2.100000000000001 8.2298957546848
2.130000000000001 8.370841696540424
2.1600000000000006 8.510808561704458
2.1900000000000004 8.647731910114178
2.22 8.779929466683921
2.25 8.906247324466428
2.28 9.026149146329038
2.3099999999999996 9.1397418807606
2.3399999999999994 9.247737983603876
2.369999999999999 9.351360392387793
2.399999999999999 9.452201888973892
2.429999999999999 9.55205449046766
2.4599999999999986 9.652726774795132
2.4899999999999984 9.755867445625588
2.5199999999999982 9.862812022446867
2.549999999999998 9.974466557327666
2.579999999999998 10.091238096787468
2.6099999999999977 10.213016685207627
2.6399999999999975 10.339208539597855
2.6699999999999973 10.46881509871352
2.699999999999997 10.600548408027375
2.729999999999997 10.73297011840402
2.7599999999999967 10.864639523466527
2.7899999999999965 10.9942556836356
2.8199999999999963 11.120779798727915
2.849999999999996 11.243526448769732
2.879999999999996 11.36221585284241
2.9099999999999957 11.476983507574033
2.9399999999999955 11.588348002616062
2.9699999999999953 11.697142000408736
2.999999999999995 11.804414881491711
3.029999999999995 11.911318054563559
3.0599999999999947 12.018985201023956
3.0899999999999945 12.128419694208745
3.1199999999999943 12.240400170430137
3.149999999999994 12.355412924435324
3.179999999999994 12.47361673269307
3.2099999999999937 12.594842214377216
3.2399999999999936 12.718624284210442
3.2699999999999934 12.844262983440675
3.299999999999993 12.97090530648899
3.329999999999993 13.097638816445041
3.3599999999999928 13.223587016502812
3.3899999999999926 13.347996672997343
3.4199999999999924 13.470308513019411
3.449999999999992 13.59020478647192
3.479999999999992 13.707629847694584
3.509999999999992 13.82278287075393
3.5399999999999916 13.936084741677448
3.5699999999999914 14.048123758440003
3.599999999999991 14.159586755476461
3.629999999999991 14.271183472160264
3.659999999999991 14.383572313975428
3.6899999999999906 14.497295119597812
3.7199999999999904 14.612727246658704
3.7499999999999902 14.73004739734655
3.77999999999999 14.849229344846279
3.80999999999999 14.970055344675014
3.8399999999999896 15.092148769947274
3.8699999999999894 15.215021623130557
3.8999999999999893 15.338131228598966
3.929999999999989 15.460939717433194
3.959999999999989 15.58296992603554
3.9899999999999887 15.703852012947799
4.019999999999989 15.823356354021657
4.049999999999989 15.941409946053827
4.079999999999989 16.05809543624292
4.10999999999999 16.17363378562024
4.13999999999999 16.288353264419943
4.16999999999999 16.402648793181726
4.19999999999999 16.516936461947623
4.229999999999991 16.631608319378675
4.259999999999991 16.746992223635683
4.289999999999991 16.86332075219987
4.319999999999991 16.98071198722081
4.349999999999992 17.099163574360094
4.379999999999992 17.218559959712156
4.409999999999992 17.33869130412517
4.439999999999992 17.459281402978434
4.469999999999993 17.58002111584082
4.499999999999993 17.70060340584506
4.529999999999993 17.820756125737645
4.559999999999993 17.940269141781414
4.589999999999994 18.059013186648574
4.619999999999994 18.176948874071662
4.649999999999994 18.294125464705935
4.679999999999994 18.41067011131867
4.709999999999995 18.526769307416902
4.739999999999995 18.642645015081126
4.769999999999995 18.75852838572935
4.799999999999995 18.87463408153134
4.829999999999996 18.99113796334233
4.859999999999996 19.10816038117141
4.889999999999996 19.225756557387353
4.919999999999996 19.343914687840044
4.949999999999997 19.46256150132801
4.979999999999997 19.58157421345816
5.009999999999997 19.700797169979325
5.039999999999997 19.820061059179665
5.069999999999998 19.93920241549656
5.099999999999998 20.05808124038987
5.129999999999998 20.17659490716938
5.159999999999998 20.2946870394364
5.189999999999999 20.412350692415515
5.219999999999999 20.52962584203476
5.249999999999999 20.646591821654738
5.279999999999999 20.76335587085086
5.31 20.88003932300787
5.34 20.996763127429453
5.37 21.113634369643606
5.4 21.230735236098763
5.430000000000001 21.348115503641118
5.460000000000001 21.465789168299146
5.490000000000001 21.58373532302773
5.520000000000001 21.70190290740478
5.550000000000002 21.820218539034084
5.580000000000002 21.93859633819943
5.610000000000002 22.05694850155585
5.640000000000002 22.17519537586103
5.670000000000003 22.29327392020378
5.700000000000003 22.4111437011111
5.730000000000003 22.528789902099255
5.760000000000003 22.64622320451271
5.790000000000004 22.76347676396787
5.820000000000004 22.880600824602936
5.850000000000004 22.997655748641044
5.880000000000004 23.114704369465663
5.910000000000005 23.231804593639247
5.940000000000005 23.349003087018154
5.970000000000005 23.46633069909715
6.000000000000005 23.583800035183422
6.030000000000006 23.701405309541215
6.060000000000006 23.819124339458057
6.090000000000006 23.93692230127305
6.120000000000006 24.054756690223574
6.150000000000007 24.172582823270304
6.180000000000007 24.290359205445903
6.210000000000007 24.408052142366444
6.240000000000007 24.525639111630667
6.270000000000008 24.643110584452664
6.300000000000008 24.760470191670436
6.330000000000008 24.87773333007091
6.360000000000008 24.994924482110328
6.390000000000009 25.112073655196497
6.420000000000009 25.22921242262916
6.450000000000009 25.34637006224888
6.480000000000009 25.46357024354242
6.51000000000001 25.58082861775258
6.54000000000001 25.698151533516384
6.57000000000001 25.815535951998644
6.60000000000001 25.9329704877031
6.6300000000000106 26.050437371402296
6.660000000000011 26.167915035753637
6.690000000000011 26.28538097049941
6.720000000000011 26.4028144859589
6.7500000000000115 26.52019905939148
6.780000000000012 26.63752401156961
6.810000000000012 26.754785358421394
6.840000000000012 26.871985793056545
6.8700000000000125 26.98913386124903
6.900000000000013 27.106242486395875
6.930000000000013 27.223327068473232
6.960000000000013 27.340403416757447
6.9900000000000135 27.457485778685374
7.020000000000014 27.574585197880854
7.050000000000014 27.69170837810619
7.080000000000014 27.808857156587422
7.1100000000000145 27.926028608697372
7.140000000000015 28.043215727292583
7.170000000000015 28.160408554150735
7.200000000000015 28.277595593646573
7.2300000000000155 28.39476531611132
7.260000000000016 28.511907560264447
7.290000000000016 28.629014669518522
7.320000000000016 28.746082240646544
7.3500000000000165 28.863109419084218
7.380000000000017 28.980098735510467
7.410000000000017 29.09705553510431
7.440000000000017 29.213987097617576
7.4700000000000175 29.33090157787762
7.500000000000018 29.4478069097588
7.530000000000018 29.56470981167501
7.560000000000018 29.68161500987641
7.5900000000000185 29.798524761099905
7.620000000000019 29.91543871371634
7.650000000000019 30.032354101869693
7.680000000000019 30.14926622626755
7.7100000000000195 30.266169142883896
7.74000000000002 30.383056460117615
7.77000000000002 30.49992213812982
7.80000000000002 30.616761190705134
7.8300000000000205 30.733570208726604
7.860000000000021 30.850347651802046
7.890000000000021 30.967093886940994
7.920000000000021 31.083810986124316
7.9500000000000215 31.200502323755483
7.980000000000022 31.317172037358233
8.010000000000021 31.433824427703804
8.04000000000002 31.550463377187846
8.07000000000002 31.667091857954404
8.10000000000002 31.783711585246003
8.130000000000019 31.900322849843597
8.160000000000018 32.01692453889018
8.190000000000017 32.133514330214766
8.220000000000017 32.25008902469293
8.250000000000016 32.36664496606172
8.280000000000015 32.48317848990607
8.310000000000015 32.59968634372946
8.340000000000014 32.71616602740992
8.370000000000013 32.832616016631654
8.400000000000013 32.949035848841355
8.430000000000012 33.0654260699207
8.460000000000012 33.18178805713247
8.49000000000001 33.29812374862945
8.52000000000001 33.41443531926117
8.55000000000001 33.53072484672696
8.580000000000009 33.646994010528715
8.610000000000008 33.763243859225234
8.640000000000008 33.87947467068446
8.670000000000007 33.99568591686519
8.700000000000006 34.111876330713365
8.730000000000006 34.228044060174284
8.760000000000005 34.344186884510684
8.790000000000004 34.46030246123255
8.820000000000004 34.576388571037945
8.850000000000003 34.69244333003381
8.880000000000003 34.80846534469377
8.910000000000002 34.9244537937675
8.940000000000001 35.040408431617244
8.97 35.156329517596305
9.0 35.27221768530387
9.03 35.38807377182566
9.059999999999999 35.50389863117758
9.089999999999998 35.619692956414525
9.119999999999997 35.735457132092705
9.149999999999997 35.85119113343443
9.179999999999996 35.966894481757706
9.209999999999996 36.08256625813713
9.239999999999995 36.19820516977548
9.269999999999994 36.31380965705749
9.299999999999994 36.42937802489312
9.329999999999993 36.544908580504334
9.359999999999992 36.660399759624426
9.389999999999992 36.77585022600086
9.419999999999991 36.89125893346268
9.44999999999999 37.006625145345154
9.47999999999999 37.121948411694156
9.50999999999999 37.2372285102283
9.539999999999988 37.3524653608764
9.569999999999988 37.46765892660605
9.599999999999987 37.58280911329423
9.629999999999987 37.69791568158524
9.659999999999986 37.812978181458774
9.689999999999985 37.927995916397144
9.719999999999985 38.04296793952655
9.749999999999984 38.15789307981587
9.779999999999983 38.27276999238494
9.809999999999983 38.387597225657856
9.839999999999982 38.50237329566289
9.869999999999981 38.61709675763608
9.89999999999998 38.73176626612083
9.92999999999998 38.846380616668824
9.95999999999998 38.960938764839035
9.989999999999979 39.07543982168971
10.019999999999978 39.18363496394588
10.049999999999978 39.275194805978686
10.079999999999977 39.34061096599462
10.109999999999976 39.37338813418832
10.139999999999976 39.37101408328789
10.169999999999975 39.33517728642605
10.199999999999974 39.27141113428083
10.229999999999974 39.188281795240954
10.259999999999973 39.09624761836096
10.289999999999973 39.00634047972875
10.319999999999972 38.92883180915204
10.349999999999971 38.872041043189455
10.37999999999997 38.84142163127038
10.40999999999997 38.83902258509117
10.43999999999997 38.86337672088791
10.469999999999969 38.90981556911222
10.499999999999968 38.9711608220433
10.529999999999967 39.038698358845394
10.559999999999967 39.10330824086284
10.589999999999966 39.156606691959404
10.619999999999965 39.19195683085274
10.649999999999965 39.205224286030784
10.679999999999964 39.19518966090005
10.709999999999964 39.163577125517605
10.739999999999963 39.11471019883939
10.769999999999962 39.054854304132355
10.799999999999962 38.991343989262404
10.829999999999961 38.93161586517266
10.85999999999996 38.88227423274898
10.88999999999996 38.84830550316585
10.919999999999959 38.83253270665845
10.949999999999958 38.8353667526169
10.979999999999958 38.85487147418583
11.009999999999957 38.88711976054481
11.039999999999957 38.926782825846395
11.069999999999956 38.96786784731266
11.099999999999955 39.00450388803898
11.129999999999955 39.031673893230405
11.159999999999954 39.04580178253832
11.189999999999953 39.045126474095625
11.219999999999953 39.0298256839787
11.249999999999952 39.001886943993
11.279999999999951 38.964756432730674
11.30999999999995 38.922823351444734
11.33999999999995 38.8808153305812
11.36999999999995 38.84318699222757
11.399999999999949 38.81357936442934
11.429999999999948 38.79441381384467
11.459999999999948 38.786663148582456
11.489999999999947 38.78981768358086
11.519999999999946 38.80203864070327
11.549999999999946 38.82046836392347
11.579999999999945 38.84164904835096
11.609999999999944 38.861990893400645
11.639999999999944 38.878227801426675
11.669999999999943 38.88780393417713
11.699999999999942 38.88914662042383
11.729999999999942 38.88179832930943
11.759999999999941 38.86640016344218
11.78999999999994 38.844538800430215
11.81999999999994 38.81848543298416
11.84999999999994 38.79086701585253
11.879999999999939 38.76431584003119
11.909999999999938 38.7411428662413
11.939999999999937 38.723073958174524
11.969999999999937 38.71107742928065
11.999999999999936 38.7052978729168
12.029999999999935 38.705096940586714
12.059999999999935 38.70918839028682
12.089999999999934 38.715843897482486
12.119999999999933 38.72313895867798
12.149999999999933 38.72920536419764
12.179999999999932 38.732458251933224
12.209999999999932 38.73177121254098
12.239999999999931 38.72658136037151
12.26999999999993 38.716916422251046
12.29999999999993 38.703346318857186
12.329999999999929 38.68687104106432
12.359999999999928 38.668763737338864
12.389999999999928 38.650392083480966
12.419999999999927 38.633041912016225
12.449999999999926 38.6177648928281
12.479999999999926 38.605267315712304
12.509999999999925 38.59585053750104
12.539999999999925 38.58940638456466
12.569999999999924 38.585463696115156
12.599999999999923 38.58327613512002
12.629999999999923 38.58193703633234
12.659999999999922 38.58050482125395
12.689999999999921 38.57812250129821
12.71999999999992 38.574116847503234
12.74999999999992 38.56806651396193
12.77999999999992 38.559833164317844
12.809999999999919 38.54955478018391
12.839999999999918 38.53760514936167
12.869999999999918 38.52452744209556
12.899999999999917 38.51095237105649
12.929999999999916 38.49751247456757
12.959999999999916 38.48476356285413
12.989999999999915 38.4731225244438
13.019999999999914 38.462827850966264
13.049999999999914 38.45392584650049
13.079999999999913 38.446282017671166
13.109999999999912 38.439614030442016
13.139999999999912 38.43354022910692
13.169999999999911 38.427636280694855
13.19999999999991 38.4214921315063
13.22999999999991 38.41476210049472
13.25999999999991 38.407202423003596
13.289999999999909 38.39869263763862
13.319999999999908 38.389239563561205
13.349999999999907 38.378964924338256
13.379999999999907 38.36807964688382
13.409999999999906 38.35684927906777
13.439999999999905 38.345555693914434
13.469999999999905 38.33446025425124
13.499999999999904 38.323772959822705
13.529999999999903 38.31363093254602
13.559999999999903 38.30408810850849
13.589999999999902 38.295116416970686
13.619999999999902 38.28661724361654
13.6499999999999 38.27844077968945
13.6799999999999 38.270410072832185
13.7099999999999 38.26234628620243
13.739999999999899 38.25409183620373
13.769999999999898 38.24552865234956
13.799999999999898 38.236589676712065
13.829999999999897 38.22726275808684
13.859999999999896 38.21758714493551
13.889999999999896 38.20764371278226
13.919999999999895 38.197540761871636
13.949999999999894 38.18739762157169
13.979999999999894 38.177328375426434
14.009999999999893 38.167427794201956
14.039999999999893 38.15776108860064
14.069999999999892 38.14835845074337
14.099999999999891 38.13921464829575
14.12999999999989 38.13029325779116
14.15999999999989 38.121534559617274
14.18999999999989 38.11286573222806
14.219999999999889 38.10421180774615
14.249999999999888 38.09550588978084
14.279999999999887 38.08669736684224
14.309999999999887 38.07775723185695
14.339999999999886 38.06868007544962
14.369999999999886 38.059482791900386
14.399999999999885 38.050200463870134
14.429999999999884 38.040880220335026
14.459999999999884 38.03157405653011
14.489999999999883 38.02233165448468
14.519999999999882 38.01319415150795
14.549999999999882 38.004189595556895
14.579999999999881 37.995330538863996
14.60999999999988 37.986613901651744
14.63999999999988 37.97802292797219
14.66999999999988 37.96953079487333
14.699999999999878 37.961105254737774
14.729999999999878 37.95271360648425
14.759999999999877 37.94432730759818
14.789999999999877 37.935925644056624
14.819999999999876 37.927498048016304
14.849999999999875 37.919044866381746
14.879999999999875 37.91057660512818
14.909999999999874 37.902111873853116
14.939999999999873 37.893674408477686
14.969999999999873 37.88528964174574
14.999999999999872 37.87698131508112
15.029999999999871 37.86876858022465
15.05999999999987 37.86066393757892
15.08999999999987 37.85267222170437
15.11999999999987 37.84479068821106
15.149999999999869 37.8370101061965
15.179999999999868 37.82931663395668
15.209999999999868 37.8216941699317
15.239999999999867 37.81412683163392
15.269999999999866 37.806601223959255
15.299999999999866 37.799108211328054
15.329999999999865 37.7916439956108
15.359999999999864 37.78421040744815
15.389999999999864 37.77681442885724
15.419999999999863 37.769467065579825
15.449999999999863 37.76218176294784
15.479999999999862 37.754972606207765
15.509999999999861 37.74785255768804
15.53999999999986 37.7408319604353
15.56999999999986 37.73391748556347
15.59999999999986 37.7271116323496
15.629999999999859 37.72041280891001
15.659999999999858 37.713815942978776
15.689999999999857 37.70731350693498
15.719999999999857 37.70089679465881
15.749999999999856 37.69455726642022
15.779999999999855 37.68828778131318
15.809999999999855 37.68208356325049
15.839999999999854 37.675942792988444
15.869999999999854 37.669866774857155
15.899999999999853 37.66385968622037
15.929999999999852 37.65792796876838
15.959999999999852 37.65207946542807
15.989999999999851 37.6463224318029
16.01999999999985 37.6406645569958
16.04999999999985 37.6351121182974
16.079999999999853 37.629669369112335
16.109999999999854 37.624338223252394
16.139999999999855 37.61911825630554
16.169999999999856 37.61400700283005
16.199999999999857 37.609000492118085
16.22999999999986 37.604093938538185
16.25999999999986 37.59928248662971
16.28999999999986 37.594561911828414
16.31999999999986 37.58992918999554
16.349999999999863 37.585382871609355
