# Results for "element" with Id # 2869235 for search config "initial" at position: x0: -500; y0: 0; z0: 323.275862069
# time VELOCITY_X
0.03 0.007290619293276123
0.06 0.030572562693498333
0.09 0.07748856124175857
0.12 0.1534449722008278
0.15 0.2610437793776816
0.18 0.399909674403757
0.21 0.5668320843936294
0.24 0.7561709225498159
0.27 0.9604713206833435
0.30000000000000004 1.1712217494522903
0.33000000000000007 1.3796807520827816
0.3600000000000001 1.577693649427359
0.3900000000000001 1.758423510932054
0.42000000000000015 1.9169307041354067
0.4500000000000002 2.050551679131493
0.4800000000000002 2.1590486658149795
0.5100000000000002 2.244525336153036
0.5400000000000003 2.3111265591550674
0.5700000000000003 2.3645605916039782
0.6000000000000003 2.411497325686423
0.6300000000000003 2.4589052354069816
0.6600000000000004 2.5133919728766982
0.6900000000000004 2.580609520682075
0.7200000000000004 2.66477539033843
0.7500000000000004 2.7683479384222944
0.7800000000000005 2.8918779939126917
0.8100000000000005 3.034042170818731
0.8400000000000005 3.1918468767145014
0.8700000000000006 3.360977346343211
0.9000000000000006 3.536254078757284
0.9300000000000006 3.7121506981158996
0.9600000000000006 3.883323139707586
0.9900000000000007 4.045100552334683
1.0200000000000007 4.193893382456752
1.0500000000000007 4.327483332270796
1.0800000000000007 4.445172335753598
1.1100000000000008 4.5477820780188996
1.1400000000000008 4.637510347333613
1.1700000000000008 4.717664079247139
1.2000000000000008 4.792299936295541
1.2300000000000009 4.865810650905162
1.260000000000001 4.9424986024815345
1.290000000000001 5.026177175159535
1.320000000000001 5.119835753627795
1.350000000000001 5.225396499194751
1.380000000000001 5.34358123810947
1.410000000000001 5.473895891178036
1.440000000000001 5.614728864645068
1.470000000000001 5.763549616204436
1.500000000000001 5.917185009702722
1.5300000000000011 6.072144737358475
1.5600000000000012 6.224963520251728
1.5900000000000012 6.372527278862366
1.6200000000000012 6.512353025574283
1.6500000000000012 6.642797613724687
1.6800000000000013 6.763178138684393
1.7100000000000013 6.8737959213008875
1.7400000000000013 6.975865653700992
1.7700000000000014 7.071360437037137
1.8000000000000014 7.1627911555401536
1.8300000000000014 7.252944179971827
1.8600000000000014 7.344604312329978
1.8900000000000015 7.440290041694109
1.9200000000000015 7.542025723338929
1.9500000000000015 7.651170639004217
1.9800000000000015 7.768318612982476
2.0100000000000016 7.893274629484487
2.0400000000000014 8.02510741507078
2.070000000000001 8.162269886395002
2.100000000000001 8.302773318401503
2.130000000000001 8.4443965541716
2.1600000000000006 8.584908927028662
2.1900000000000004 8.722284993678754
2.22 8.854890717488228
2.25 8.981624204698887
2.28 9.101999119787877
2.3099999999999996 9.216164952002513
2.3399999999999994 9.324864730193436
2.369999999999999 9.429336916218686
2.399999999999999 9.531173421573245
2.429999999999999 9.632149491828335
2.4599999999999986 9.734043262691321
2.4899999999999984 9.838463001279123
2.5199999999999982 9.946698479276886
2.549999999999998 10.059609843939391
2.579999999999998 10.177563133015667
2.6099999999999977 10.300416681562101
2.6399999999999975 10.427557582508019
2.6699999999999973 10.557982564718774
2.699999999999997 10.690413574827998
2.729999999999997 10.82343534791029
2.7599999999999967 10.955640580180349
2.7899999999999965 11.085768100056804
2.8199999999999963 11.212820666390156
2.849999999999996 11.336151544373852
2.879999999999996 11.45551254027526
2.9099999999999957 11.571060325605837
2.9399999999999955 11.683322200754459
2.9699999999999953 11.79312648330173
2.999999999999995 11.90150604694533
3.029999999999995 12.00958586490812
3.0599999999999947 12.118466534986021
3.0899999999999945 12.229115625191442
3.1199999999999943 12.342277356552923
3.149999999999994 12.458408828803256
3.179999999999994 12.577647971239998
3.2099999999999937 12.699814998311096
3.2399999999999936 12.824445718533221
3.2699999999999934 12.950851921993548
3.299999999999993 13.07820155116388
3.329999999999993 13.205609670504952
3.3599999999999928 13.33223053152301
3.3899999999999926 13.457341325444274
3.4199999999999924 13.58040946241216
3.449999999999992 13.701137253599564
3.479999999999992 13.819480463822767
3.509999999999992 13.935640052784265
3.5399999999999916 14.050029223382886
3.5699999999999914 14.163220350003728
3.599999999999991 14.27587822446598
3.629999999999991 14.388687164142866
3.659999999999991 14.502279795707908
3.6899999999999906 14.617174773078904
3.7199999999999904 14.733729409339752
3.7499999999999902 14.852111369241497
3.77999999999999 14.972291396059026
3.80999999999999 15.094056774855115
3.8399999999999896 15.217043099990121
3.8699999999999894 15.340780132004635
3.8999999999999893 15.464746265911831
3.929999999999989 15.588425497682808
3.959999999999989 15.711360809808635
3.9899999999999887 15.833198568213438
4.019999999999989 15.95371973415412
4.049999999999989 16.072855293598572
4.079999999999989 16.190685105270465
4.10999999999999 16.30742116446681
4.13999999999999 16.42337787982391
4.16999999999999 16.538933201765953
4.19999999999999 16.654485209139548
4.229999999999991 16.77040899737429
4.259999999999991 16.887018418657973
4.289999999999991 17.004536464270654
4.319999999999991 17.123076955166475
4.349999999999992 17.242638859540776
4.379999999999992 17.36311313996902
4.409999999999992 17.484300701667564
4.439999999999992 17.605938905049264
4.469999999999993 17.72773332694689
4.499999999999993 17.849391072613223
4.529999999999993 17.97065197593192
4.559999999999993 18.091314454549387
4.589999999999994 18.211253542457506
4.619999999999994 18.330429606759633
4.649999999999994 18.448887348557847
4.679999999999994 18.5667457646726
4.709999999999995 18.684180689875483
4.739999999999995 18.801402252474805
4.769999999999995 18.918629993905064
4.799999999999995 19.03606849655491
4.829999999999996 19.15388614071425
4.859999999999996 19.272199115815067
4.889999999999996 19.39106211062547
4.919999999999996 19.51046629254547
4.949999999999997 19.630344351307148
4.979999999999997 19.750581621417048
5.009999999999997 19.8710316890439
5.039999999999997 19.99153449162433
5.069999999999998 20.111934763491625
5.099999999999998 20.232098772024884
5.129999999999998 20.351927603502656
5.159999999999998 20.471365745698506
5.189999999999999 20.590404313746856
5.219999999999999 20.709078901374678
5.249999999999999 20.827462639264677
5.279999999999999 20.945655540097498
5.31 21.063771556592492
5.34 21.181924944606237
5.37 21.300217500278315
5.4 21.418728042162122
5.430000000000001 21.537505170414732
5.460000000000001 21.65656390041911
5.490000000000001 21.775886294605883
5.520000000000001 21.89542575759382
5.550000000000002 22.015114268179175
5.580000000000002 22.134871536599178
5.610000000000002 22.254614923193003
5.640000000000002 22.374268943843536
5.670000000000003 22.493773310875046
5.700000000000003 22.61308869363095
5.730000000000003 22.732199696292273
5.760000000000003 22.85111490146288
5.790000000000004 22.969864173573843
5.820000000000004 23.088493717001263
5.850000000000004 23.207059608385627
5.880000000000004 23.32562065001607
5.910000000000005 23.444231412423846
5.940000000000005 23.56293625440078
5.970000000000005 23.681764942802705
6.000000000000005 23.80073026789967
6.030000000000006 23.91982779209086
6.060000000000006 24.03903761335068
6.090000000000006 24.158327799020952
6.120000000000006 24.27765897476731
6.150000000000007 24.396989453771702
6.180000000000007 24.516280270000475
6.210000000000007 24.63549953396069
6.240000000000007 24.754625648287238
6.270000000000008 24.87364908579303
6.300000000000008 24.99257262168984
6.330000000000008 25.11141010089931
6.360000000000008 25.230183988496
6.390000000000009 25.34892207797521
6.420000000000009 25.467653805668487
6.450000000000009 25.586406635396404
6.480000000000009 25.70520293744555
6.51000000000001 25.82405769796995
6.54000000000001 25.942977272700354
6.57000000000001 26.06195926026598
6.60000000000001 26.180993431820735
6.6300000000000106 26.300063531420598
6.660000000000011 26.419149670418168
6.690000000000011 26.5382309871287
6.720000000000011 26.65728823363063
6.7500000000000115 26.776305983543676
6.780000000000012 26.89527422143408
6.810000000000012 27.014189165115692
6.840000000000012 27.133053275177563
6.8700000000000125 27.251874507269676
6.900000000000013 27.370664950367356
6.930000000000013 27.489439059305244
6.960000000000013 27.608211724165066
6.9900000000000135 27.726996422599722
7.020000000000014 27.845803674556333
7.050000000000014 27.964639966889127
7.080000000000014 28.083507246963755
7.1100000000000145 28.202403008062756
7.140000000000015 28.321320915397543
7.170000000000015 28.440251859204793
7.200000000000015 28.55918527643766
7.2300000000000155 28.67811056055806
7.260000000000016 28.7970183800682
7.290000000000016 28.91590174976994
7.320000000000016 29.03475673943982
7.3500000000000165 29.153582756902843
7.380000000000017 29.27238239922824
7.410000000000017 29.39116091937715
7.440000000000017 29.509925399964477
7.4700000000000175 29.628683755848837
7.500000000000018 29.74744370035657
7.530000000000018 29.8662118056268
7.560000000000018 29.98499276732439
7.5900000000000185 30.10378895139828
7.620000000000019 30.222600260589406
7.650000000000019 30.34142431618406
7.680000000000019 30.46025691176118
7.7100000000000195 30.579092664773633
7.74000000000002 30.69792577196429
7.77000000000002 30.81675076787818
7.80000000000002 30.935563191773795
7.8300000000000205 31.0543600858105
7.860000000000021 31.17314027329692
7.890000000000021 31.291904396464105
7.920000000000021 31.410654724543683
7.9500000000000215 31.529394770766036
7.980000000000022 31.648128778320455
8.010000000000021 31.766861147727603
8.04000000000002 31.885595880788898
8.07000000000002 32.00433610946544
8.10000000000002 32.123083762959766
8.130000000000019 32.241839405716796
8.160000000000018 32.360602255631846
8.190000000000017 32.47937036864282
8.220000000000017 32.59814095609573
8.250000000000016 32.716910786710635
8.280000000000015 32.83567661744787
8.310000000000015 32.954435597547445
8.340000000000014 33.07318559693151
8.370000000000013 33.19192542275124
8.400000000000013 33.31065490406434
8.430000000000012 33.429374842475795
8.460000000000012 33.548086843318
8.49000000000001 33.666793056145835
8.52000000000001 33.78549586257692
8.55000000000001 33.90419755381866
8.580000000000009 34.02290003882317
8.610000000000008 34.14160461748298
8.640000000000008 34.26031184299741
8.670000000000007 34.379021484931215
8.700000000000006 34.497732591046585
8.730000000000006 34.61644363380721
8.760000000000005 34.73515271788473
8.790000000000004 34.85385781833875
8.820000000000004 34.97255701797425
8.850000000000003 35.091248714090426
8.880000000000003 35.209931770669314
8.910000000000002 35.32860560041707
8.940000000000001 35.44727017091682
8.97 35.56592593895884
9.0 35.68457372602557
9.03 35.80321455414145
9.059999999999999 35.921849465352345
9.089999999999998 36.04047934848043
9.119999999999997 36.15910479430689
9.149999999999997 36.2777259952975
9.179999999999996 36.39634269946382
9.209999999999996 36.51495422061789
9.239999999999995 36.633559500027175
9.269999999999994 36.752157208176186
9.299999999999994 36.87074587099529
9.329999999999993 36.98932400332244
9.359999999999992 37.107890232139326
9.389999999999992 37.22644339480343
9.419999999999991 37.344982601619655
9.44999999999999 37.46350725735912
9.47999999999999 37.5820170418056
9.50999999999999 37.70051185475797
9.539999999999988 37.818991734802786
9.569999999999988 37.93745676398451
9.599999999999987 38.05590697080336
9.629999999999987 38.17434224407006
9.659999999999986 38.292762268044385
9.689999999999985 38.411166485726156
9.719999999999985 38.52955409290139
9.749999999999984 38.64792406142732
9.779999999999983 38.766275186383496
9.809999999999983 38.88460615009587
9.839999999999982 39.00291559368793
9.869999999999981 39.12120218668125
9.89999999999998 39.239464686110445
9.92999999999998 39.35770197842623
9.95999999999998 39.47591309973548
9.989999999999979 39.59409723343079
10.019999999999978 39.705899270892814
10.049999999999978 39.800812976198486
10.079999999999977 39.86919815748686
10.109999999999976 39.904528892698714
10.139999999999976 39.9043708802827
10.169999999999975 39.870576082899255
10.199999999999974 39.808884666943264
10.229999999999974 39.728063951186726
10.259999999999973 39.63872365547626
10.289999999999973 39.55196643440611
10.319999999999972 39.47804129283648
10.349999999999971 39.42515855944333
10.37999999999997 39.39859895685112
10.40999999999997 39.40020950824427
10.43999999999997 39.42833062780153
10.469999999999969 39.4781472125397
10.499999999999968 39.542407244010846
10.529999999999967 39.612409366037596
10.559999999999967 39.679130746452
10.589999999999966 39.73435195196868
10.619999999999965 39.77163893113345
10.649999999999965 39.78706353150286
10.679999999999964 39.77958077313836
10.709999999999964 39.75102820802866
10.739999999999963 39.70576321016072
10.769999999999962 39.65000052053396
10.799999999999962 39.59094829788206
10.829999999999961 39.53586181443651
10.85999999999996 39.491138043373525
10.88999999999996 39.46156242850025
10.919999999999959 39.44979402359391
10.949999999999958 39.456141038526596
10.979999999999958 39.47864032966861
11.009999999999957 39.513416232583616
11.039999999999957 39.55526069715448
11.069999999999956 39.59835165207095
11.099999999999955 39.63701269531266
11.129999999999955 39.66641605420722
11.159999999999954 39.683142289998905
11.189999999999953 39.685532628188106
11.219999999999953 39.67379977415574
11.249999999999952 39.64989621420994
11.279999999999951 39.61717053256724
11.30999999999995 39.57986789835353
11.33999999999995 39.54254745889558
11.36999999999995 39.50949533467198
11.399999999999949 39.48420734237544
11.429999999999948 39.46900192003456
11.459999999999948 39.46480350006298
11.489999999999947 39.47111277582976
11.519999999999946 39.486156062549334
11.549999999999946 39.507184193376204
11.579999999999945 39.53087455597212
11.609999999999944 39.55377973015536
11.639999999999944 39.57276366272917
11.669999999999943 39.585371370064436
11.699999999999942 39.590089831277595
11.729999999999942 39.586474167332355
11.759999999999941 39.57513199934801
11.78999999999994 39.55757740631343
11.81999999999994 39.53598170983791
11.84999999999994 39.512859499012954
11.879999999999939 39.490733751454144
11.909999999999938 39.471823363343276
11.939999999999937 39.45779043568206
11.969999999999937 39.44957447608176
11.999999999999936 39.447327893316825
12.029999999999935 39.45045354907266
12.059999999999935 39.45773242036556
12.089999999999934 39.46751909278301
12.119999999999933 39.47797594790872
12.149999999999933 39.48731414196951
12.179999999999932 39.49401087726938
12.209999999999932 39.49697760661468
12.239999999999931 39.4956617985856
12.26999999999993 39.490074507973674
12.29999999999993 39.48074590592981
12.329999999999929 39.468619818333174
12.359999999999928 39.45490513314812
12.389999999999928 39.44090595361052
12.419999999999927 39.42785330852213
12.449999999999926 39.41675922293507
12.479999999999926 39.408309502855275
12.509999999999925 39.40280545785792
12.539999999999925 39.400157886558084
12.569999999999924 39.39992988546949
12.599999999999923 39.40141925032857
12.629999999999923 39.40376704832995
12.659999999999922 39.40607675150312
12.689999999999921 39.40752825117829
12.71999999999992 39.40747297139637
12.74999999999992 39.40549977797396
12.77999999999992 39.40146587680451
12.809999999999919 39.395491760377524
12.839999999999918 39.38792385139501
12.869999999999918 39.37927223714749
12.899999999999917 39.37013338877021
12.929999999999916 39.361108799915236
12.959999999999916 39.35273005373716
12.989999999999915 39.34539911912061
13.019999999999914 39.339350011785235
13.049999999999914 39.334634751268986
13.079999999999913 39.33113325101425
13.109999999999912 39.328583812931676
13.139999999999912 39.32662860440072
13.169999999999911 39.32486710490342
13.19999999999991 39.3229101185241
13.22999999999991 39.32042752214166
13.25999999999991 39.31718430568996
13.289999999999909 39.31306141553204
13.319999999999908 39.308060137432136
13.349999999999907 39.302290947401445
13.379999999999907 39.2959496395
13.409999999999906 39.2892848984538
13.439999999999905 39.282562192294826
13.469999999999905 39.276028886667305
13.499999999999904 39.26988488333382
13.529999999999903 39.2642619945227
13.559999999999903 39.25921386417754
13.589999999999902 39.2547167445838
13.619999999999902 39.25068002915222
13.6499999999999 39.24696430192673
13.6799999999999 39.243403910300806
13.7099999999999 39.23983076338608
13.739999999999899 39.23609620279091
13.769999999999898 39.232088326732466
13.799999999999898 39.227742969645476
13.829999999999897 39.22304751870554
13.859999999999896 39.218037741685976
13.889999999999896 39.212788684017
13.919999999999895 39.20740135939857
13.949999999999894 39.20198734196338
13.979999999999894 39.196653445542694
14.009999999999893 39.191488464580615
14.039999999999893 39.1865535039631
14.069999999999892 39.181876818833494
14.099999999999891 39.17745341805632
14.12999999999989 39.17324904374958
14.15999999999989 39.16920760489689
14.18999999999989 39.165260777571994
14.219999999999889 39.161338318287946
14.249999999999888 39.15737767402275
14.279999999999887 39.15333169231035
14.309999999999887 39.149173592094556
14.339999999999886 39.14489878979239
14.369999999999886 39.14052362188623
14.399999999999885 39.13608140997527
14.429999999999884 39.13161662469873
14.459999999999884 39.12717808804024
14.489999999999883 39.12281219871589
14.519999999999882 39.11855707677496
14.549999999999882 39.114438323949486
14.579999999999881 39.110466821899486
14.60999999999988 39.10663868597963
14.63999999999988 39.102937197561175
14.66999999999988 39.09933629065705
14.699999999999878 39.09580499787417
14.729999999999878 39.092312182974105
14.759999999999877 39.088830905395234
14.789999999999877 39.085341864659064
14.819999999999876 39.08183553960411
14.849999999999875 39.07831284204643
14.879999999999875 39.07478431660736
14.909999999999874 39.07126810868144
14.939999999999873 39.06778706812439
14.969999999999873 39.06436544216146
14.999999999999872 39.0610256311494
15.029999999999871 39.057785435414985
15.05999999999987 39.054656122291654
15.08999999999987 39.05164150969646
15.11999999999987 39.0487381122138
15.149999999999869 39.04593625130164
15.179999999999868 39.04322191034674
15.209999999999868 39.04057903389132
15.239999999999867 39.03799193401483
15.269999999999866 39.03544747665896
15.299999999999866 39.032936773713175
15.329999999999865 39.03045619255063
15.359999999999864 39.02800759784044
15.389999999999864 39.02559784751961
15.419999999999863 39.02323766174695
15.449999999999863 39.020940056355485
15.479999999999862 39.0187185767852
15.509999999999861 39.01658557819751
15.53999999999986 39.01455077445487
15.56999999999986 39.012620227039285
15.59999999999986 39.01079587754965
15.629999999999859 39.009075648257685
15.659999999999858 39.007454059390355
15.689999999999857 39.00592324808264
15.719999999999857 39.00447422921525
15.749999999999856 39.00309821774728
15.779999999999855 39.00178783653083
15.809999999999855 39.00053805988023
15.839999999999854 38.9993467884706
15.869999999999854 38.99821500602262
15.899999999999853 38.99714652622298
15.929999999999852 38.99614738889396
15.959999999999852 38.99522500741454
15.989999999999851 38.994387193759536
16.01999999999985 38.99364119374468
16.04999999999985 38.99299285476561
16.079999999999853 38.99244602342506
16.109999999999854 38.99200223496426
16.139999999999855 38.99166071470653
16.169999999999856 38.991418670559156
16.199999999999857 38.99127182012582
16.22999999999986 38.99121506988958
16.25999999999986 38.99124324876537
16.28999999999986 38.99135179878278
16.31999999999986 38.991537337721795
16.349999999999863 38.991798030765054
16.379999999999864 38.99213373703645
