# Results for "element" with Id # 2879432 for search config "initial" at position: x0: -500; y0: 0; z0: 129.310344828
# time VELOCITY_X
0.03 0.007028867407741013
0.06 0.02962075479319264
0.09 0.07531407540116501
0.12 0.14947338588089978
0.15 0.25472151644027885
0.18 0.39076460991992984
0.21 0.5545279528233176
0.24 0.7405503519764564
0.27 0.9415818569068057
0.30000000000000004 1.1493197659070915
0.33000000000000007 1.3552100279218124
0.3600000000000001 1.5512386031442735
0.3900000000000001 1.7306410543598376
0.42000000000000015 1.888468558610171
0.4500000000000002 2.0219638461476785
0.4800000000000002 2.130719845021406
0.5100000000000002 2.2166151414652724
0.5400000000000003 2.283541589393531
0.5700000000000003 2.3369583566852827
0.6000000000000003 2.3833215266634755
0.6300000000000003 2.4294477392182614
0.6600000000000004 2.4818736101442354
0.6900000000000004 2.5462698882599337
0.7200000000000004 2.6269611835710873
0.7500000000000004 2.7265898160493443
0.7800000000000005 2.8459473700067233
0.8100000000000005 2.9839814338221204
0.8400000000000005 3.137969208195802
0.8700000000000006 3.3038354197305493
0.9000000000000006 3.476580274706283
0.9300000000000006 3.6507747922968146
0.9600000000000006 3.8210763131171954
0.9900000000000007 3.9827165939842777
1.0200000000000007 4.131918726731977
1.0500000000000007 4.2662068605220655
1.0800000000000007 4.384583688014467
1.1100000000000008 4.4875638269245135
1.1400000000000008 4.5770652584530165
1.1700000000000008 4.656174413216073
1.2000000000000008 4.728811932201624
1.2300000000000009 4.79933445757851
1.260000000000001 4.872112301486649
1.290000000000001 4.951123289151635
1.320000000000001 5.039599677330546
1.350000000000001 5.139758431487177
1.380000000000001 5.252636144319349
1.410000000000001 5.378039462839482
1.440000000000001 5.51461103512322
1.470000000000001 5.660000603427742
1.500000000000001 5.811121773662269
1.5300000000000011 5.964467864605744
1.5600000000000012 6.116455644058575
1.5900000000000012 6.263764048025089
1.6200000000000012 6.403636315849779
1.6500000000000012 6.534118245105644
1.6800000000000013 6.654212077641137
1.7100000000000013 6.763934197787038
1.7400000000000013 6.864274465354159
1.7700000000000014 6.957064608734092
1.8000000000000014 7.044771661329763
1.8300000000000014 7.130239083922769
1.8600000000000014 7.216402347905275
1.8900000000000015 7.306007088292746
1.9200000000000015 7.401356470661537
1.9500000000000015 7.504110490926904
1.9800000000000015 7.615154060518589
2.0100000000000016 7.734543591307936
2.0400000000000014 7.861534092821749
2.070000000000001 7.994681229105793
2.100000000000001 8.132006000080619
2.130000000000001 8.27120426208922
2.1600000000000006 8.409879642364944
2.1900000000000004 8.545776810653082
2.22 8.67699270533601
2.25 8.80214607959516
2.28 8.920490363746186
2.3099999999999996 9.031960848768424
2.3399999999999994 9.137153945817378
2.369999999999999 9.237243052233712
2.399999999999999 9.333841643341358
2.429999999999999 9.428829005011059
2.4599999999999986 9.524157073275122
2.4899999999999984 9.621657945797708
2.5199999999999982 9.722870749160665
2.549999999999998 9.828903898859094
2.579999999999998 9.940344717960304
2.6099999999999977 10.057223345040882
2.6399999999999975 10.179032373766564
2.6699999999999973 10.304798243144262
2.699999999999997 10.433195531598317
2.729999999999997 10.562691431889975
2.7599999999999967 10.691705140784299
2.7899999999999965 10.818765901278262
2.8199999999999963 10.942654075934838
2.849999999999996 11.06251181119212
2.879999999999996 11.177913338447373
2.9099999999999957 11.28888936182698
2.9399999999999955 11.39590482232457
2.9699999999999953 11.499794081934601
2.999999999999995 11.60166173932884
3.029999999999995 11.702760451510127
3.0599999999999947 11.804359007370094
3.0899999999999945 11.907614342889788
3.1199999999999943 12.013460223787497
3.149999999999994 12.122523119559052
3.179999999999994 12.235072626344895
3.2099999999999937 12.351010023355721
3.2399999999999936 12.469894565187763
3.2699999999999934 12.591003318073037
3.299999999999993 12.713417109859632
3.329999999999993 12.836122787983706
3.3599999999999928 12.95812067833523
3.3899999999999926 13.078526019859638
3.4199999999999924 13.196654195164212
3.449999999999992 13.312081645120376
3.479999999999992 13.42467720107553
3.509999999999992 13.534601861857402
3.5399999999999916 13.64227841789843
3.5699999999999914 13.748335414524751
3.599999999999991 13.853532430766087
3.629999999999991 13.958675291499581
3.659999999999991 14.064530492332409
3.6899999999999906 14.171747774439826
3.7199999999999904 14.28079852665536
3.7499999999999902 14.39193569067978
3.77999999999999 14.505178343178896
3.80999999999999 14.62032140936199
3.8399999999999896 14.736968315429296
3.8699999999999894 14.854582084099091
3.8999999999999893 14.972548643764231
3.929999999999989 15.090245115189788
3.959999999999989 15.207105640840993
3.9899999999999887 15.322677920360853
4.019999999999989 15.436664917432681
4.049999999999989 15.548948040027208
4.079999999999989 15.659590247770849
4.10999999999999 15.76881975949496
4.13999999999999 15.876997076219443
4.16999999999999 15.984569685722963
4.19999999999999 16.092019913929285
4.229999999999991 16.199811845083858
4.259999999999991 16.308343027739536
4.289999999999991 16.417905877131496
4.319999999999991 16.52866239144256
4.349999999999992 16.640634184831868
4.379999999999992 16.753708092951562
4.409999999999992 16.867655920263186
4.439999999999992 16.982165450827235
4.469999999999993 17.09687877929593
4.499999999999993 17.21143343334946
4.529999999999993 17.325501692904304
4.559999999999993 17.438823949137184
4.589999999999994 17.551232814461503
4.619999999999994 17.662665877590054
4.649999999999994 17.77316634995508
4.679999999999994 17.88287221353732
4.709999999999995 17.991995703415235
4.739999999999995 18.100795913957953
4.769999999999995 18.209547913941442
4.799999999999995 18.31851194733077
4.829999999999996 18.42790608300747
4.859999999999996 18.537885107130265
4.889999999999996 18.648527605607963
4.919999999999996 18.759832173131606
4.949999999999997 18.871722626674615
4.979999999999997 18.984061117200007
5.009999999999997 19.0966672264933
5.039999999999997 19.209340586432113
5.069999999999998 19.321884311460924
5.099999999999998 19.434126602815677
5.129999999999998 19.54593824262725
5.159999999999998 19.65724428675644
5.189999999999999 19.768029012529613
5.219999999999999 19.878333985656795
5.249999999999999 19.988249887153387
5.279999999999999 20.09790339889647
5.31 20.207440919914117
5.34 20.317011131793297
5.37 20.42674843601486
5.4 20.53675906226098
5.430000000000001 20.647111235493036
5.460000000000001 20.757830245836647
5.490000000000001 20.86889866176655
5.520000000000001 20.980261332267002
5.550000000000002 21.091834305833128
5.580000000000002 21.20351640662349
5.610000000000002 21.315201987695428
5.640000000000002 21.426793341971816
5.670000000000003 21.538211386943996
5.700000000000003 21.649403524049536
5.730000000000003 21.760347965895598
5.760000000000003 21.87105427289102
5.790000000000004 21.98156029010901
5.820000000000004 22.091926073333017
5.850000000000004 22.202225699339685
5.880000000000004 22.312538039046082
5.910000000000005 22.422937619442727
5.940000000000005 22.5334866157611
5.970000000000005 22.64422881634976
6.000000000000005 22.75518611977755
6.030000000000006 22.866357793942562
6.060000000000006 22.977722393203557
6.090000000000006 23.089241930075925
6.120000000000006 23.20086766457417
6.150000000000007 23.31254672944822
6.180000000000007 23.424228765430115
6.210000000000007 23.535871795713586
6.240000000000007 23.647446709676696
6.270000000000008 23.75893993087927
6.300000000000008 23.87035408497913
6.330000000000008 23.98170672942899
6.360000000000008 24.093027429395004
6.390000000000009 24.204353638626408
6.420000000000009 24.31572595222771
6.450000000000009 24.427183332627024
6.480000000000009 24.538758872161942
6.51000000000001 24.65047655281166
6.54000000000001 24.762349313407103
6.57000000000001 24.874378559456673
6.60000000000001 24.98655507112819
6.6300000000000106 25.098861101400146
6.660000000000011 25.21127333011691
6.690000000000011 25.32376626202944
6.720000000000011 25.436315632581707
6.7500000000000115 25.54890141500194
6.780000000000012 25.661510098937388
6.810000000000012 25.774136020213955
6.840000000000012 25.886781651246658
6.8700000000000125 25.999456892078644
6.900000000000013 26.11217751901231
6.930000000000013 26.224963038806514
6.960000000000013 26.33783424852488
6.9900000000000135 26.450810815858624
7.020000000000014 26.5639091706286
7.050000000000014 26.67714093934749
7.080000000000014 26.79051207323346
7.1100000000000145 26.904022725139484
7.140000000000015 27.017667835714178
7.170000000000015 27.131438306663775
7.200000000000015 27.2453225755338
7.2300000000000155 27.35930837110877
7.260000000000016 27.47338442217504
7.290000000000016 27.587541914254487
7.320000000000016 27.701775534004607
7.3500000000000165 27.816084002570324
7.380000000000017 27.930470069252987
7.410000000000017 28.044940004935672
7.440000000000017 28.159502693401624
7.4700000000000175 28.274168461081132
7.500000000000018 28.388947807968
7.530000000000018 28.50385020324873
7.560000000000018 28.618883089795972
7.5900000000000185 28.734051205674138
7.620000000000019 28.8493562841844
7.650000000000019 28.96479714258342
7.680000000000019 29.08037012085179
7.7100000000000195 29.196069791421554
7.74000000000002 29.311889832342946
7.77000000000002 29.42782394373762
7.80000000000002 29.543866690025897
7.8300000000000205 29.660014167955435
7.860000000000021 29.776264429008503
7.890000000000021 29.89261762034126
7.920000000000021 30.009075846109337
7.9500000000000215 30.125642785670145
7.980000000000022 30.242323133188336
8.010000000000021 30.35912194106495
8.04000000000002 30.47604395599626
8.07000000000002 30.593093031589987
8.10000000000002 30.710271685819293
8.130000000000019 30.82758084906447
8.160000000000018 30.945019821486987
8.190000000000017 31.062586430815927
8.220000000000017 31.180277357300156
8.250000000000016 31.298088573450148
8.280000000000015 31.41601583519281
8.310000000000015 31.534055159023293
8.340000000000014 31.652203225864447
8.370000000000013 31.77045766562743
8.400000000000013 31.888817194362407
8.430000000000012 32.00728159653038
8.460000000000012 32.125851564620135
8.49000000000001 32.24452842598575
8.52000000000001 32.363313798555815
8.55000000000001 32.48220922349744
8.580000000000009 32.60121582281214
8.610000000000008 32.720334023447734
8.640000000000008 32.83956337840283
8.670000000000007 32.95890250114252
8.700000000000006 33.078349114244205
8.730000000000006 33.19790019879197
8.760000000000005 33.31755221937834
8.790000000000004 33.43730139048684
8.820000000000004 33.55714394845907
8.850000000000003 33.67707639407632
8.880000000000003 33.797095676897996
8.910000000000002 33.917199301632834
8.940000000000001 34.03738534807364
8.97 34.15765240748313
9.0 34.27799944917631
9.03 34.39842563832941
9.059999999999999 34.518930131460834
9.089999999999998 34.639511877035474
9.119999999999997 34.760169445993164
9.149999999999997 34.880900911477916
9.179999999999996 35.00170378987317
9.209999999999996 35.122575046911614
9.239999999999995 35.24351116406876
9.269999999999994 35.364508252680686
9.299999999999994 35.48556219807238
9.329999999999993 35.606668814002504
9.359999999999992 35.727823986896254
9.389999999999992 35.849023792267786
9.419999999999991 35.97026457043584
9.44999999999999 36.09154295485596
9.47999999999999 36.21285585255208
9.50999999999999 36.334200382757444
9.539999999999988 36.45557378399049
9.569999999999988 36.576973303742086
9.599999999999987 36.69839608467068
9.629999999999987 36.81983906249934
9.659999999999986 36.94129888860511
9.689999999999985 37.06277188581598
9.719999999999985 37.18425404071459
9.749999999999984 37.30574103065448
9.779999999999983 37.42722827875026
9.809999999999983 37.54871102941367
9.839999999999982 37.67018443379472
9.869999999999981 37.79164363368662
9.89999999999998 37.9130838333831
9.92999999999998 38.03450035084664
9.95999999999998 38.15588864317361
9.989999999999979 38.27724430467951
10.019999999999978 38.39273700475807
10.049999999999978 38.49253409259557
10.079999999999977 38.56733531458182
10.109999999999976 38.61052018361613
10.139999999999976 38.6191730970044
10.169999999999975 38.59441197390485
10.199999999999974 38.54116777813453
10.229999999999974 38.46750521417792
10.259999999999973 38.383588586869585
10.289999999999973 38.300425772123695
10.319999999999972 38.22854448303679
10.349999999999971 38.17675945284506
10.37999999999997 38.151174868614
10.40999999999997 38.1545354178072
10.43999999999997 38.185995911519825
10.469999999999969 38.24132885667165
10.499999999999968 38.31353710165329
10.529999999999967 38.3937902702718
10.559999999999967 38.47256461540537
10.589999999999966 38.540841046833506
10.619999999999965 38.59120943715366
10.649999999999965 38.61874056960599
10.679999999999964 38.62151923524116
10.709999999999964 38.600778707126686
10.739999999999963 38.56063120644358
10.769999999999962 38.507442727344745
10.799999999999962 38.448945757923106
10.829999999999961 38.39321382693987
10.85999999999996 38.347634197974294
10.88999999999996 38.31800892654622
10.919999999999959 38.307892236660585
10.949999999999958 38.318237666744565
10.979999999999958 38.347386640295944
11.009999999999957 38.391386270337286
11.039999999999957 38.444583447718124
11.069999999999956 38.500409273672325
11.099999999999955 38.55224659229275
11.129999999999955 38.59426629486787
11.159999999999954 38.6221261890257
11.189999999999953 38.63344823246282
11.219999999999953 38.62802257696444
11.249999999999952 38.607725231022975
11.279999999999951 38.576174507537026
11.30999999999995 38.53818432193634
11.33999999999995 38.49909555255766
11.36999999999995 38.46407756463277
11.399999999999949 38.43749018936763
11.429999999999948 38.42238316914544
11.459999999999948 38.420188033087406
11.489999999999947 38.43062995163811
11.519999999999946 38.45185803260869
11.549999999999946 38.48076535410639
11.579999999999945 38.51344790174084
11.609999999999944 38.54573691152205
11.639999999999944 38.573733412424055
11.669999999999943 38.594277360233924
11.699999999999942 38.60529587499767
11.729999999999942 38.605993751972704
11.759999999999941 38.59687183899512
11.78999999999994 38.5795818420035
11.81999999999994 38.55664649929569
11.84999999999994 38.531089298406066
11.879999999999939 38.50602635096994
11.909999999999938 38.48427412888715
11.939999999999937 38.46802096428127
11.969999999999937 38.45859883282399
11.999999999999936 38.456376873998686
12.029999999999935 38.460781476513226
12.059999999999935 38.470431726165664
12.089999999999934 38.48336547048459
12.119999999999933 38.4973216795371
12.149999999999933 38.51004009828653
12.179999999999932 38.519539671683184
12.209999999999932 38.52434251827783
12.239999999999931 38.523619374499354
12.26999999999993 38.51724400469065
12.29999999999993 38.50575643441456
12.329999999999929 38.490246348878564
12.359999999999928 38.47217718277631
12.389999999999928 38.45317730258835
12.419999999999927 38.43482675941751
12.449999999999926 38.41846642306077
12.479999999999926 38.40505142058333
12.509999999999925 38.39506357464327
12.539999999999925 38.38848907414765
12.569999999999924 38.38485903767573
12.599999999999923 38.38334303005363
12.629999999999923 38.38287980537781
12.659999999999922 38.382326160509486
12.689999999999921 38.38060402532175
12.71999999999992 38.37682769155114
12.74999999999992 38.37039698527868
12.77999999999992 38.361047563879936
12.809999999999919 38.348855577910506
12.839999999999918 38.334199865865166
12.869999999999918 38.31768988841174
12.899999999999917 38.3000712048456
12.929999999999916 38.2821221076919
12.959999999999916 38.26455498302703
12.989999999999915 38.24793422733699
13.019999999999914 38.232619486775256
13.049999999999914 38.21873908927167
13.079999999999913 38.20619437541779
13.109999999999912 38.194691735535805
13.139999999999912 38.18379599148411
13.169999999999911 38.17299665384578
13.19999999999991 38.16177770923227
13.22999999999991 38.1496819558736
13.25999999999991 38.13636236088231
13.289999999999909 38.12161518710278
13.319999999999908 38.105392373520594
13.349999999999907 38.08779346854824
13.379999999999907 38.06903994861741
13.409999999999906 38.04943670817265
13.439999999999905 38.02932668415156
13.469999999999905 38.009044903508915
13.499999999999904 37.98887774657503
13.529999999999903 37.96903204014118
13.559999999999903 37.94961694341914
13.589999999999902 37.93063971933979
13.619999999999902 37.912014641384864
13.6499999999999 37.893582709073364
13.6799999999999 37.87513869823099
13.7099999999999 37.856461468552986
13.739999999999899 37.83734341638116
13.769999999999898 37.81761544545556
13.799999999999898 37.79716472867095
13.829999999999897 37.77594369783197
13.859999999999896 37.753969949151916
13.889999999999896 37.73131793454764
13.919999999999895 37.708104267601364
13.949999999999894 37.6844691115726
13.979999999999894 37.660556383450604
14.009999999999893 37.636495403753806
14.039999999999893 37.61238618938297
14.069999999999892 37.58828991178952
14.099999999999891 37.564225244179674
14.12999999999989 37.540170500994485
14.15999999999989 37.516070739796994
14.18999999999989 37.491848441689655
14.219999999999889 37.46741605575615
14.249999999999888 37.4426886117404
14.279999999999887 37.41759476968831
14.309999999999887 37.39208503356865
14.339999999999886 37.36613634064472
14.369999999999886 37.3397527787781
14.399999999999885 37.31296270926649
14.429999999999884 37.28581301307569
14.459999999999884 37.25836148303909
14.489999999999883 37.23066853172735
14.519999999999882 37.20278936462956
14.549999999999882 37.17476759887154
14.579999999999881 37.146631025646904
14.60999999999988 37.11838987052894
14.63999999999988 37.09003754693194
14.66999999999988 37.061553571619804
14.699999999999878 37.032908056269115
14.729999999999878 37.00406703446905
14.759999999999877 36.974997840959006
14.789999999999877 36.94567382408627
14.819999999999876 36.916077824093655
14.849999999999875 36.886204064993876
14.879999999999875 36.85605835007375
14.909999999999874 36.82565668591742
14.939999999999873 36.79502265652826
14.969999999999873 36.76418400714229
14.999999999999872 36.73316896642762
15.029999999999871 36.70200282423399
15.05999999999987 36.67070520190964
15.08999999999987 36.639288325802355
15.11999999999987 36.60775645174954
15.149999999999869 36.57610642247165
15.179999999999868 36.54432918875699
15.209999999999868 36.51241201101909
15.239999999999867 36.480340990249246
15.269999999999866 36.448103561966306
15.299999999999866 36.4156906197103
15.329999999999865 36.38309801100979
15.359999999999864 36.350327251639
15.389999999999864 36.31738541990846
15.419999999999863 36.284284306805105
15.449999999999863 36.251038988500646
15.479999999999862 36.217666054748435
15.509999999999861 36.18418175685075
15.53999999999986 36.15060032975805
15.56999999999986 36.11693269953821
15.59999999999986 36.08318572515935
15.629999999999859 36.04936204020251
15.659999999999858 36.015460473790924
15.689999999999857 35.98147695616724
15.719999999999857 35.947405755214874
15.749999999999856 35.91324085844173
15.779999999999855 35.87897730526693
15.809999999999855 35.844612293807465
15.839999999999854 35.81014593032486
15.869999999999854 35.7755815463619
15.899999999999853 35.740925571516144
15.929999999999852 35.706187004085315
15.959999999999852 35.67137657641607
15.989999999999851 35.636505745238566
16.01999999999985 35.601585648171366
16.04999999999985 35.566626163046195
16.079999999999853 35.53163518573945
16.109999999999854 35.496618206129035
16.139999999999855 35.461578218418445
16.169999999999856 35.42651595650142
16.199999999999857 35.391430405038776
16.22999999999986 35.356319503959156
16.25999999999986 35.32118094152861
16.28999999999986 35.28601292802617
16.31999999999986 35.25081485104242
16.349999999999863 35.2155877343136
