# Results for "element" with Id # 2853237 for search config "initial" at position: x0: -500; y0: 0; z0: 362.068965517
# time VELOCITY_X
0.03 0.007337776841847638
0.06 0.030770411768106336
0.09 0.07798500497398216
0.12 0.15441753727771299
0.15 0.26268246111071114
0.18 0.40239917556108296
0.21 0.5703349213425257
0.24 0.7608128797354172
0.27 0.9663306794643819
0.30000000000000004 1.1783234732251269
0.33000000000000007 1.3879963533856872
0.3600000000000001 1.5871468324853686
0.3900000000000001 1.7689009681461372
0.42000000000000015 1.9282967680499092
0.4500000000000002 2.0626650171280914
0.4800000000000002 2.1717789503733544
0.5100000000000002 2.257767874429338
0.5400000000000003 2.324813206453155
0.5700000000000003 2.378665834022799
0.6000000000000003 2.42603909132901
0.6300000000000003 2.473940668313077
0.6600000000000004 2.5290089826253346
0.6900000000000004 2.596915339999197
0.7200000000000004 2.6818836089479845
0.7500000000000004 2.7863655398324827
0.7800000000000005 2.9108938247258607
0.8100000000000005 3.0541180468429694
0.8400000000000005 3.2130122025822856
0.8700000000000006 3.3832277214393796
0.9000000000000006 3.559553913437082
0.9300000000000006 3.7364394102873915
0.9600000000000006 3.908524091422176
0.9900000000000007 4.07113157140135
1.0200000000000007 4.220677539450875
1.0500000000000007 4.3549586374837075
1.0800000000000007 4.4732991877420485
1.1100000000000008 4.576547613298371
1.1400000000000008 4.666929263162809
1.1700000000000008 4.7477759666137676
1.2000000000000008 4.823163602226514
1.2300000000000009 4.897496268912687
1.260000000000001 4.975078765334476
1.290000000000001 5.059718012160065
1.320000000000001 5.154389215967217
1.350000000000001 5.260994728474293
1.380000000000001 5.380233645315511
1.410000000000001 5.5115892241592
1.440000000000001 5.653430172632282
1.470000000000001 5.803211671113644
1.500000000000001 5.957753453280558
1.5300000000000011 6.113566022869557
1.5600000000000012 6.26719262932576
1.5900000000000012 6.415534230461253
1.6200000000000012 6.556127351143335
1.6500000000000012 6.6873502335274795
1.6800000000000013 6.808540406922723
1.7100000000000013 6.9200159702647035
1.7400000000000013 7.023002512515455
1.7700000000000014 7.119476683004917
1.8000000000000014 7.2119450392125515
1.8300000000000014 7.3031822259821
1.8600000000000014 7.395955332581048
1.8900000000000015 7.492761315919385
1.9200000000000015 7.595601831794946
1.9500000000000015 7.705815107072976
1.9800000000000015 7.8239781879123225
2.0100000000000016 7.949885693912762
2.0400000000000014 8.08260378540043
2.070000000000001 8.220591074597952
2.100000000000001 8.361872272073667
2.130000000000001 8.504245940198155
2.1600000000000006 8.64550518407371
2.1900000000000004 8.783649632875505
2.22 8.917068669581205
2.25 9.044679359788937
2.28 9.166007540674233
2.3099999999999996 9.281206523164006
2.3399999999999994 9.391014197182237
2.369999999999999 9.496655350865884
2.399999999999999 9.599701107521172
2.429999999999999 9.701901067627325
2.4599999999999986 9.805005705955386
2.4899999999999984 9.910596716061729
2.5199999999999982 10.019941398060993
2.549999999999998 10.133884113695741
2.579999999999998 10.252783659815302
2.6099999999999977 10.376500592488293
2.6399999999999975 10.504433551137788
2.6699999999999973 10.635598950802986
2.699999999999997 10.768744451293394
2.729999999999997 10.902483717231949
2.7599999999999967 11.035438393208356
2.7899999999999965 11.16637304993684
2.8199999999999963 11.2943100962531
2.849999999999996 11.418614137981713
2.879999999999996 11.539038720059391
2.9099999999999957 11.655732432093814
2.9399999999999955 11.769205553571782
2.9699999999999953 11.880262323947168
2.999999999999995 11.989907149680677
3.029999999999995 12.099235300119819
3.0599999999999947 12.209319714464296
3.0899999999999945 12.321105391507015
3.1199999999999943 12.435321540677037
3.149999999999994 12.552419428165667
3.179999999999994 12.672540924467299
3.2099999999999937 12.795519471759196
3.2399999999999936 12.920911879718865
3.2699999999999934 13.04805634926981
3.299999999999993 13.176149697902149
3.329999999999993 13.304335135116984
3.3599999999999928 13.43179124422022
3.3899999999999926 13.557813107309528
3.4199999999999924 13.681877702534159
3.449999999999992 13.803687652783383
3.479999999999992 13.923189885914425
3.509999999999992 14.040568497744774
3.5399999999999916 14.156213794770839
3.5699999999999914 14.270671851817964
3.599999999999991 14.384580717498677
3.629999999999991 14.498600476030996
3.659999999999991 14.613344650314662
3.6899999999999906 14.72931992053338
3.7199999999999904 14.846879928604837
3.7499999999999902 14.966197202050358
3.77999999999999 15.087255165060679
3.80999999999999 15.209860038271263
3.8399999999999896 15.333670386942396
3.8699999999999894 15.458240363758577
3.8999999999999893 15.583071468024343
3.929999999999989 15.707667012080904
3.959999999999989 15.831583489651466
3.9899999999999887 15.954473651507266
4.019999999999989 16.07611722161768
4.049999999999989 16.19643668945004
4.079999999999989 16.31549731509771
4.10999999999999 16.433492192195757
4.13999999999999 16.550714745911524
4.16999999999999 16.667522244168687
4.19999999999999 16.784294658132122
4.229999999999991 16.901393465622213
4.259999999999991 17.019124746612885
4.289999999999991 17.13771022866836
4.319999999999991 17.257268897747032
4.349999999999992 17.37781052693346
4.379999999999992 17.499241137467166
4.409999999999992 17.62137913832563
4.439999999999992 17.743979823587708
4.469999999999993 17.866765143788015
4.499999999999993 17.989455274393638
4.529999999999993 18.11179850454548
4.559999999999993 18.233596343258633
4.589999999999994 18.35472142807312
4.619999999999994 18.47512673267472
4.649999999999994 18.59484559438968
4.679999999999994 18.713983101983168
4.709999999999995 18.832700287684233
4.739999999999995 18.951193262539622
4.769999999999995 19.069669856696464
4.799999999999995 19.188326445602172
4.829999999999996 19.307327462941373
4.859999999999996 19.42678966014931
4.889999999999996 19.546772531656146
4.919999999999996 19.667275568256898
4.949999999999997 19.788242215671545
4.979999999999997 19.909569690234406
5.009999999999997 20.031123213826373
5.039999999999997 20.152752833056383
5.069999999999998 20.27431081540592
5.099999999999998 20.39566767391485
5.129999999999998 20.51672514345986
5.159999999999998 20.637424871243834
5.189999999999999 20.75775213561191
5.219999999999999 20.87773450091876
5.249999999999999 20.99743588428943
5.279999999999999 21.116946990022136
5.31 21.236373411172423
5.34 21.355822875158168
5.37 21.475393111256253
5.4 21.59516165307931
5.430000000000001 21.715178588286694
5.460000000000001 21.835462871539512
5.490000000000001 21.9560023772864
5.520000000000001 22.0767574368248
5.550000000000002 22.19766722859752
5.580000000000002 22.318658109976106
5.610000000000002 22.439652819214352
5.640000000000002 22.56057944811422
5.670000000000003 22.681379184213824
5.700000000000003 22.8020120273924
5.730000000000003 22.92245996889409
5.760000000000003 23.042727444280636
5.790000000000004 23.162839195668973
5.820000000000004 23.282835965822926
5.850000000000004 23.40276866659198
5.880000000000004 23.522691796054353
5.910000000000005 23.64265691261029
5.940000000000005 23.76270691302384
5.970000000000005 23.882871717897437
6.000000000000005 24.003165764657552
6.030000000000006 24.123587471570914
6.060000000000006 24.244120596909575
6.090000000000006 24.36473720270112
6.120000000000006 24.485401765931186
6.150000000000007 24.606075877639583
6.180000000000007 24.726722940145173
6.210000000000007 24.84731231339407
6.240000000000007 24.967822463657384
6.270000000000008 25.088242815570315
6.300000000000008 25.20857418141254
6.330000000000008 25.32882781762196
6.360000000000008 25.449023316982647
6.390000000000009 25.569185668082078
6.420000000000009 25.689341889046652
6.450000000000009 25.809517664833734
6.480000000000009 25.929734387390255
6.51000000000001 26.050006922405384
6.54000000000001 26.17034231718975
6.57000000000001 26.290739537550433
6.60000000000001 26.411190192618896
6.6300000000000106 26.531680090925605
6.660000000000011 26.652191382405864
6.690000000000011 26.77270498770853
6.720000000000011 26.89320300210957
6.7500000000000115 27.013670785910072
6.780000000000012 27.134098510930315
6.810000000000012 27.25448201399125
6.840000000000012 27.374822902490305
6.8700000000000125 27.49512795143407
6.900000000000013 27.615407914373964
6.930000000000013 27.73567593389318
6.960000000000013 27.855945772813328
6.9900000000000135 27.97623009424309
7.020000000000014 28.096538997312393
7.050000000000014 28.21687897007146
7.080000000000014 28.337252359335228
7.1100000000000145 28.457657387190597
7.140000000000015 28.57808867480223
7.170000000000015 28.698538174840266
7.200000000000015 28.81899637004376
7.2300000000000155 28.93945357245095
7.260000000000016 29.05990115626131
7.290000000000016 29.18033257666707
7.320000000000016 29.30074406302576
7.3500000000000165 29.42113492227557
7.380000000000017 29.54150744090153
7.410000000000017 29.661866424092537
7.440000000000017 29.78221845309979
7.4700000000000175 29.902570971347632
7.500000000000018 30.02293132385655
7.530000000000018 30.143305872301227
7.560000000000018 30.26369929071458
7.5900000000000185 30.384114117643428
7.620000000000019 30.504550603901457
7.650000000000019 30.625006855753274
7.680000000000019 30.74547923672665
7.7100000000000195 30.865962961457832
7.74000000000002 30.98645279526964
7.77000000000002 31.1069437655814
7.80000000000002 31.227431795637425
7.8300000000000205 31.347914186441788
7.860000000000021 31.468389896316147
7.890000000000021 31.58885959590348
7.920000000000021 31.709325505851304
7.9500000000000215 31.829791050990757
7.980000000000022 31.950260385641087
8.010000000000021 32.070737857259004
8.04000000000002 32.191227479174174
8.07000000000002 32.31173247763035
8.10000000000002 32.43225496493052
8.130000000000019 32.55279577157147
8.160000000000018 32.67335444835056
8.190000000000017 32.79392942752253
8.220000000000017 32.9145183129923
8.250000000000016 33.035118255207905
8.280000000000015 33.15572635859229
8.310000000000015 33.276340068553125
8.340000000000014 33.39695749098348
8.370000000000013 33.51757760855328
8.400000000000013 33.63820037314579
8.430000000000012 33.75882667061126
8.460000000000012 33.87945817007625
8.49000000000001 34.000097083842874
8.52000000000001 34.12074587324555
8.55000000000001 34.2414069405048
8.580000000000009 34.362082345847156
8.610000000000008 34.482773583473346
8.640000000000008 34.60348144054634
8.670000000000007 34.72420595157095
8.700000000000006 34.844946447737314
8.730000000000006 34.96570168901542
8.760000000000005 35.08647005733019
8.790000000000004 35.20724978246173
8.820000000000004 35.32803917059934
8.850000000000003 35.4488368067223
8.880000000000003 35.56964170715197
8.910000000000002 35.69045340635158
8.940000000000001 35.81127197132527
8.97 35.93209794638708
9.0 36.05293223972759
9.03 36.1737759695144
9.059999999999999 36.29463029145606
9.089999999999998 36.41549623052188
9.119999999999997 36.536374537513176
9.149999999999997 36.657265586651846
9.179999999999996 36.778169324256105
9.209999999999996 36.89908527159402
9.239999999999995 37.02001257800457
9.269999999999994 37.14095011420998
9.299999999999994 37.261896591310304
9.329999999999993 37.382850689049576
9.359999999999992 37.50381117650977
9.389999999999992 37.62477701064824
9.419999999999991 37.745747401832716
9.44999999999999 37.866721840436504
9.47999999999999 37.98770008382153
9.50999999999999 38.10868210819632
9.539999999999988 38.22966803381269
9.569999999999988 38.35065803481254
9.599999999999987 38.47165224570778
9.629999999999987 38.59265067663321
9.659999999999986 38.71365314768071
9.689999999999985 38.834659249410656
9.719999999999985 38.955668332666704
9.749999999999984 39.076679526865775
9.779999999999983 39.19769178221864
9.809999999999983 39.31870392938885
9.839999999999982 39.43971474776943
9.869999999999981 39.560723033298046
9.89999999999998 39.6817276574678
9.92999999999998 39.80272761080485
9.95999999999998 39.92372202603963
9.989999999999979 40.04471017965093
10.019999999999978 40.159265281583174
10.049999999999978 40.256786945477835
10.079999999999977 40.32756311961483
10.109999999999976 40.365036534040705
10.139999999999976 40.36679652351584
10.169999999999975 40.33476885749921
10.199999999999974 40.2747975316648
10.229999999999974 40.19575651391886
10.259999999999973 40.108338763500186
10.289999999999973 40.02368785363144
10.319999999999972 39.95204356354096
10.349999999999971 39.90156100839299
10.37999999999997 39.877434118678465
10.40999999999997 39.88141253858695
10.43999999999997 39.91175157944365
10.469999999999969 39.963583251375184
10.499999999999968 40.02964787789264
10.529999999999967 40.10128523741317
10.559999999999967 40.16955590730038
10.589999999999966 40.2263508796416
10.619999999999965 40.2653525631269
10.649999999999965 40.282732697511044
10.679999999999964 40.277509770809836
10.709999999999964 40.25153505393021
10.739999999999963 40.20912558487194
10.769999999999962 40.156407187167744
10.799999999999962 40.10046472956529
10.829999999999961 40.048416192066725
10.85999999999996 40.006530199419444
10.88999999999996 39.979494387317544
10.919999999999959 39.96991718732164
10.949999999999958 39.97811236224578
10.979999999999958 40.00217841752206
11.009999999999957 40.038348352108976
11.039999999999957 40.08155320933608
11.069999999999956 40.12611903223247
11.099999999999955 40.1665037360782
11.129999999999955 40.1979794506152
11.159999999999954 40.21717702033388
11.189999999999953 40.2224308534529
11.219999999999953 40.21389102697064
11.249999999999952 40.19340129522739
11.279999999999951 40.1641718799312
11.30999999999995 40.13030055165133
11.33999999999995 40.096211556867054
11.36999999999995 40.06608787789179
11.399999999999949 40.04336819661615
11.429999999999948 40.03036712001372
11.459999999999948 40.02805807006885
11.489999999999947 40.036035584636316
11.519999999999946 40.052650585367424
11.549999999999946 40.07529123124926
11.579999999999945 40.10076562801279
11.609999999999944 40.12573261418501
11.639999999999944 40.14712401960348
11.669999999999943 40.162506206752894
11.699999999999942 40.170339496325155
11.729999999999942 40.17010953032029
11.759999999999941 40.16232248970747
11.78999999999994 40.14837385856392
11.81999999999994 40.13031576472047
11.84999999999994 40.11055897649521
11.879999999999939 40.091551273699814
11.909999999999938 40.0754738449471
11.939999999999937 40.063992072262906
11.969999999999937 40.05808764511162
11.999999999999936 40.057986918096645
12.029999999999935 40.06318745801509
12.059999999999935 40.07257246995271
12.089999999999934 40.084592675665775
12.119999999999933 40.097488321641706
12.149999999999933 40.10952094922514
12.179999999999932 40.119185493657604
12.209999999999932 40.12537782745615
12.239999999999931 40.127500227226854
12.26999999999993 40.12549629005138
12.29999999999993 40.119816294595395
12.329999999999929 40.11132263637073
12.359999999999928 40.101151723867474
12.389999999999928 40.0905528813234
12.419999999999927 40.08072604607371
12.449999999999926 40.07267846040185
12.479999999999926 40.067116578058545
12.509999999999925 40.06438373256623
12.539999999999925 40.064447600505915
12.569999999999924 40.06693500001238
12.599999999999923 40.07120590199104
12.629999999999923 40.076454321107214
12.659999999999922 40.08182140712444
12.689999999999921 40.08650571931657
12.71999999999992 40.08985722862748
12.74999999999992 40.09144471417619
12.77999999999992 40.091090388238044
12.809999999999919 40.088870188255186
12.839999999999918 40.08508260065285
12.869999999999918 40.080192575361416
12.899999999999917 40.07475964952897
12.929999999999916 40.0693605927193
12.959999999999916 40.06451668130367
12.989999999999915 40.06063425645294
13.019999999999914 40.05796480895583
13.049999999999914 40.05658785128216
13.079999999999913 40.05641670736021
13.109999999999912 40.05722447499889
13.139999999999912 40.05868513308239
13.169999999999911 40.06042331047747
13.19999999999991 40.06206571686462
13.22999999999991 40.06328764232974
13.25999999999991 40.06384913501009
13.289999999999909 40.06361724385424
13.319999999999908 40.06257279152381
13.349999999999907 40.06080223239675
13.379999999999907 40.05847698428761
13.409999999999906 40.05582399070023
13.439999999999905 40.05309203788624
13.469999999999905 40.05051847596175
13.499999999999904 40.04830051621565
13.529999999999903 40.04657431386976
13.559999999999903 40.04540376244282
13.589999999999902 40.044779516361324
13.619999999999902 40.04462741073631
13.6499999999999 40.04482432822445
13.6799999999999 40.04521879308349
13.7099999999999 40.04565321989375
13.739999999999899 40.0459848163497
13.769999999999898 40.046102588919894
13.799999999999898 40.04593863538021
13.829999999999897 40.04547281116445
13.859999999999896 40.04473079212296
13.889999999999896 40.043776405486504
13.919999999999895 40.04269975976507
13.949999999999894 40.04160310495544
13.979999999999894 40.04058646918584
14.009999999999893 40.03973495774504
14.039999999999893 40.03910921063844
14.069999999999892 40.03873996490928
14.099999999999891 40.03862704757177
14.12999999999989 40.038742518011624
14.15999999999989 40.039037162270155
14.18999999999989 40.03944917646784
14.219999999999889 40.03991369619111
14.249999999999888 40.04037183907741
14.279999999999887 40.04077811231138
14.309999999999887 40.04110535630501
14.339999999999886 40.041346794669735
14.369999999999886 40.041515179046435
14.399999999999885 40.04163940259238
14.429999999999884 40.041759257980665
14.459999999999884 40.04191920154033
14.489999999999883 40.042162042061086
14.519999999999882 40.04252340321503
14.549999999999882 40.04302763208401
14.579999999999881 40.04368557572835
14.60999999999988 40.044494364257
14.63999999999988 40.04543906056921
14.66999999999988 40.04649579968266
14.699999999999878 40.0476358730701
14.729999999999878 40.048830132157505
14.759999999999877 40.050053094045325
14.789999999999877 40.05128622211253
14.819999999999876 40.05252000663724
14.849999999999875 40.053754660635974
14.879999999999875 40.05499944587835
14.909999999999874 40.0562708254104
14.939999999999873 40.05758978005734
14.969999999999873 40.05897871207117
14.999999999999872 40.06045838246516
15.029999999999871 40.062045290120444
15.05999999999987 40.063749810523355
15.08999999999987 40.0655752880235
15.11999999999987 40.06751813399799
15.149999999999869 40.06956884560269
15.179999999999868 40.0717137432629
15.209999999999868 40.07393714504001
15.239999999999867 40.076223658405176
15.269999999999866 40.07856027628776
15.299999999999866 40.08093801257361
15.329999999999865 40.08335289241819
15.359999999999864 40.08580621051196
15.389999999999864 40.08830407284102
15.419999999999863 40.09085633092664
15.449999999999863 40.09347508898031
15.479999999999862 40.096173008638296
15.509999999999861 40.09896164710882
15.53999999999986 40.10185004448026
15.56999999999986 40.10484372801396
15.59999999999986 40.10794423691527
15.629999999999859 40.11114919540965
15.659999999999858 40.11445288891169
15.689999999999857 40.11784723547324
15.719999999999857 40.12132300044155
15.749999999999856 40.124871080538036
15.779999999999855 40.12848368667945
15.809999999999855 40.13215527877574
15.839999999999854 40.13588314816674
15.869999999999854 40.13966759576401
15.899999999999853 40.14351171003417
15.929999999999852 40.14742079899054
15.959999999999852 40.151401572405554
15.989999999999851 40.15546119537306
16.01999999999985 40.159606342228244
16.04999999999985 40.163842371095896
16.079999999999853 40.16817271610717
16.109999999999854 40.17259856065145
16.139999999999855 40.17711881470452
16.169999999999856 40.18173037906264
16.199999999999857 40.186428644055056
16.22999999999986 40.191208144096244
16.25999999999986 40.19606327389723
16.28999999999986 40.20098897123553
16.31999999999986 40.20598128193349
16.349999999999863 40.21103774355133
16.379999999999864 40.2161575515981
