# Results for "element" with Id # 2866083 for search config "initial" at position: x0: -500; y0: 0; z0: 271.551724138
# time VELOCITY_X
0.03 0.007212105117605566
0.06 0.03021449372575822
0.09 0.07654217980873565
0.12 0.15152344296474596
0.15 0.25772119997180176
0.18 0.3947635857395355
0.21 0.5594851515937154
0.24 0.7463278818644175
0.27 0.9479474899165741
0.30000000000000004 1.1559598696485751
0.33000000000000007 1.36175391302561
0.3600000000000001 1.5572935709876665
0.3900000000000001 1.7358353102098107
0.42000000000000015 1.8924971418979373
0.4500000000000002 2.0246313779054854
0.4800000000000002 2.1319736218941028
0.5100000000000002 2.2165630544093635
0.5400000000000003 2.2824513496632743
0.5700000000000003 2.335237166154899
0.6000000000000003 2.381478105044131
0.6300000000000003 2.4280410231479848
0.6600000000000004 2.481454115826141
0.6900000000000004 2.5473205173917655
0.7200000000000004 2.629844186671196
0.7500000000000004 2.731505852672513
0.7800000000000005 2.85291130304703
0.8100000000000005 2.992817822250629
0.8400000000000005 3.1483285345189262
0.8700000000000006 3.315230003772337
0.9000000000000006 3.4884367115576027
0.9300000000000006 3.662497793857666
0.9600000000000006 3.8321172686309803
0.9900000000000007 3.9926392634580434
1.0200000000000007 4.14045444339278
1.0500000000000007 4.27329255349303
1.0800000000000007 4.39037788207183
1.1100000000000008 4.4924383160699115
1.1400000000000008 4.581573038742564
1.1700000000000008 4.660997292407519
1.2000000000000008 4.734693621915033
1.2300000000000009 4.807006594714324
1.260000000000001 4.882221570233753
1.290000000000001 4.964167580835873
1.320000000000001 5.055880128438531
1.350000000000001 5.159352387846344
1.380000000000001 5.275393837375471
1.410000000000001 5.403604691271973
1.440000000000001 5.542463660026672
1.470000000000001 5.689516414154703
1.500000000000001 5.841643470598564
1.5300000000000011 5.995379715730888
1.5600000000000012 6.147253936177771
1.5900000000000012 6.294115849025637
1.6200000000000012 6.433420276636527
1.6500000000000012 6.563443090094922
1.6800000000000013 6.6834108600504525
1.7100000000000013 6.79353504961367
1.7400000000000013 6.894951135618266
1.7700000000000014 6.9895722490960654
1.8000000000000014 7.079874834599035
1.8300000000000014 7.168639677251411
1.8600000000000014 7.258674923599166
1.8900000000000015 7.352548252139034
1.9200000000000015 7.452353229503671
1.9500000000000015 7.559530508151624
1.9800000000000015 7.674758427225938
2.0100000000000016 7.797920443027739
2.0400000000000014 7.9281493304307755
2.070000000000001 8.063940934615305
2.100000000000001 8.20332402299373
2.130000000000001 8.34406799656384
2.1600000000000006 8.48390726496389
2.1900000000000004 8.620760192237245
2.22 8.75292175452132
2.25 8.879212262649881
2.28 8.999069362044782
2.3099999999999996 9.112576513688545
2.3399999999999994 9.22042764623572
2.369999999999999 9.32383396932462
2.399999999999999 9.424384400420609
2.429999999999999 9.523875152815123
2.4599999999999986 9.62412639567118
2.4899999999999984 9.726804387365823
2.5199999999999982 9.833266141793935
2.549999999999998 9.944440759097365
2.579999999999998 10.06075739992357
2.6099999999999977 10.182124963984812
2.6399999999999975 10.307963344258543
2.6699999999999973 10.437281154527241
2.699999999999997 10.56879052001089
2.729999999999997 10.701046257551226
2.7599999999999967 10.832594834368756
2.7899999999999965 10.962118036742318
2.8199999999999963 11.088557326857723
2.849999999999996 11.211207278291404
2.879999999999996 11.329769992278928
2.9099999999999957 11.44436661939488
2.9399999999999955 11.555506584864059
2.9699999999999953 11.664019365337094
2.999999999999995 11.77095725237295
3.029999999999995 11.8774801136442
3.0599999999999947 11.984734506464694
3.0899999999999945 12.093739529073584
3.1199999999999943 12.205290573729357
3.149999999999994 12.319889860960268
3.179999999999994 12.437709561981709
3.2099999999999937 12.55858979803525
3.2399999999999936 12.682070206804855
3.2699999999999934 12.807450442049362
3.299999999999993 12.933872240624122
3.329999999999993 13.060413803345181
3.3599999999999928 13.18618635339325
3.3899999999999926 13.310422920928048
3.4199999999999924 13.432550604101179
3.449999999999992 13.552239618195548
3.479999999999992 13.669425125164409
3.509999999999992 13.784300828290455
3.5399999999999916 13.897286292891145
3.5699999999999914 14.008972595978381
3.599999999999991 14.120052948826435
3.629999999999991 14.231246188441041
3.659999999999991 14.343221401505856
3.6899999999999906 14.456531432334955
3.7199999999999904 14.571561732866257
3.7499999999999902 14.688499111723582
3.77999999999999 14.807322655303375
3.80999999999999 14.927816681792265
3.8399999999999896 15.049603301990233
3.8699999999999894 15.172190230259451
3.8999999999999893 15.295028099442181
3.929999999999989 15.417570806742463
3.959999999999989 15.539332404563332
3.9899999999999887 15.659934723097235
4.019999999999989 15.77914117100536
4.049999999999989 15.896873847089237
4.079999999999989 16.013213010113205
4.10999999999999 16.128379878546063
4.13999999999999 16.242705458137188
4.16999999999999 16.35658944557064
4.19999999999999 16.470454103772326
4.229999999999991 16.58469828398637
4.259999999999991 16.699656479259268
4.289999999999991 16.815566997838786
4.319999999999991 16.932552152768793
4.349999999999992 17.050611925332433
4.379999999999992 17.169631040987312
4.409999999999992 17.289397963029323
4.439999999999992 17.409633110562748
4.469999999999993 17.53002276010365
4.499999999999993 17.650254668193032
4.529999999999993 17.770051480069085
4.559999999999993 17.889198442880424
4.589999999999994 18.007562749442492
4.619999999999994 18.12510289478351
4.649999999999994 18.24186760408377
4.679999999999994 18.357985051476753
4.709999999999995 18.473644107157433
4.739999999999995 18.589070121167833
4.769999999999995 18.704498204636803
4.799999999999995 18.820147071510576
4.829999999999996 18.936196263417692
4.859999999999996 19.052769045377325
4.889999999999996 19.16992250356134
4.919999999999996 19.287645496563396
4.949999999999997 19.405864209970787
4.979999999999997 19.524454242633237
5.009999999999997 19.643257496875883
5.039999999999997 19.762101717657842
5.069999999999998 19.880820361054862
5.099999999999998 19.999270574310696
5.129999999999998 20.11734741350036
5.159999999999998 20.234992955404508
5.189999999999999 20.35219961079084
5.219999999999999 20.469007634779246
5.249999999999999 20.585497478229186
5.279999999999999 20.701778160557332
5.31 20.8179732161915
5.34 20.934205941789877
5.37 21.05058564133397
5.4 21.167196346744575
5.430000000000001 21.284089120427538
5.460000000000001 21.401278572170636
5.490000000000001 21.51874370829732
5.520000000000001 21.636432734305775
5.550000000000002 21.754271009743075
5.580000000000002 21.872171048440272
5.610000000000002 21.99004329663384
5.640000000000002 22.107806414821482
5.670000000000003 22.225395927743268
5.700000000000003 22.34277036660876
5.730000000000003 22.459914370799964
5.760000000000003 22.576838598763104
5.790000000000004 22.693576672862257
5.820000000000004 22.810179707875434
5.850000000000004 22.92670921389316
5.880000000000004 23.043229298948688
5.910000000000005 23.159799115566635
5.940000000000005 23.27646640453144
5.970000000000005 23.393262805498782
6.000000000000005 23.5102013552523
6.030000000000006 23.62727631262247
6.060000000000006 23.744465170258888
6.090000000000006 23.861732469268244
6.120000000000006 23.979034849175886
6.150000000000007 24.096326659939496
6.180000000000007 24.213565442742958
6.210000000000007 24.330716648710393
6.240000000000007 24.44775709660746
6.270000000000008 24.56467685229338
6.300000000000008 24.681479419331406
6.330000000000008 24.798180336114683
6.360000000000008 24.91480445595004
6.390000000000009 25.03138232292573
6.420000000000009 25.14794613460682
6.450000000000009 25.264525797646137
6.480000000000009 25.38114553698958
6.51000000000001 25.497821421851558
6.54000000000001 25.61456003739618
6.57000000000001 25.73135837974698
6.60000000000001 25.848204901176487
6.6300000000000106 25.96508149965178
6.660000000000011 26.081966148621238
6.690000000000011 26.198835807586008
6.720000000000011 26.31566924494645
6.7500000000000115 26.432449440537084
6.780000000000012 26.54916530893707
6.810000000000012 26.665812583674132
6.840000000000012 26.78239381492619
6.8700000000000125 26.898917543234546
6.900000000000013 27.01539680676704
6.930000000000013 27.131847209947665
6.960000000000013 27.24828481767448
6.9900000000000135 27.364724142585565
7.020000000000014 27.4811764635026
7.050000000000014 27.597648656269428
7.080000000000014 27.71414264381932
7.1100000000000145 27.8306554894182
7.140000000000015 27.9471800767885
7.170000000000015 28.063706253534576
7.200000000000015 28.18022226572233
7.2300000000000155 28.296716287906367
7.260000000000016 28.41317785442495
7.290000000000016 28.529599023210814
7.320000000000016 28.645975147487874
7.3500000000000165 28.76230518726767
7.380000000000017 28.87859155395062
7.410000000000017 28.99483953916454
7.440000000000017 29.111056426732915
7.4700000000000175 29.22725041898864
7.500000000000018 29.34342952265665
7.530000000000018 29.459600534829523
7.560000000000018 29.57576824776463
7.5900000000000185 29.69193495617142
7.620000000000019 29.80810030770541
7.650000000000019 29.92426149203543
7.680000000000019 30.040413722273165
7.7100000000000195 30.15655092947706
7.74000000000002 30.27266656963871
7.77000000000002 30.388754435354606
7.80000000000002 30.504809370826987
7.8300000000000205 30.620827807629652
7.860000000000021 30.73680806637036
7.890000000000021 30.852750402135
7.920000000000021 30.968656805030413
7.9500000000000215 31.084530596788674
7.980000000000022 31.200375887244256
8.010000000000021 31.316196967683695
8.04000000000002 31.431997720945237
8.07000000000002 31.54778112092427
8.10000000000002 31.663548878046768
8.130000000000019 31.779301265480434
8.160000000000018 31.89503713600437
8.190000000000017 32.010754114937
8.220000000000017 32.126448933609026
8.250000000000016 32.242117852427846
8.280000000000015 32.35775711463885
8.310000000000015 32.47336337195847
8.340000000000014 32.58893403060878
8.370000000000013 32.704467479642545
8.400000000000013 32.81996318054592
8.430000000000012 32.93542161596197
8.460000000000012 33.05084411296364
8.49000000000001 33.1662325712844
8.52000000000001 33.28158913654037
8.55000000000001 33.39691586292973
8.580000000000009 33.51221440838625
8.610000000000008 33.62748579820918
8.640000000000008 33.7427302823171
8.670000000000007 33.857947297987465
8.700000000000006 33.97313553585117
8.730000000000006 34.08829309416694
8.760000000000005 34.20341769644131
8.790000000000004 34.31850694040435
8.820000000000004 34.43355854541609
8.850000000000003 34.54857056720526
8.880000000000003 34.66354155504553
8.910000000000002 34.77847063529659
8.940000000000001 34.893357515602204
8.97 35.00820241428849
9.0 35.12300592886372
9.03 35.23776886387049
9.059999999999999 35.35249204253739
9.089999999999998 35.467176126969065
9.119999999999997 35.58182146881696
9.149999999999997 35.69642800699589
9.179999999999996 35.81099522217744
9.209999999999996 35.92552215012493
9.239999999999995 36.04000744835733
9.269999999999994 36.154449504016426
9.299999999999994 36.26884656638859
9.329999999999993 36.38319688606475
9.359999999999992 36.49749884249387
9.389999999999992 36.611751044626445
9.419999999999991 36.7259523937605
9.44999999999999 36.84010210330365
9.47999999999999 36.9541996758434
9.50999999999999 37.068244843560066
9.539999999999988 37.1822374818709
9.569999999999988 37.29617750916445
9.599999999999987 37.41006478547868
9.629999999999987 37.523899023240645
9.659999999999986 37.6376797209752
9.689999999999985 37.75140612698193
9.719999999999985 37.86507723539134
9.749999999999984 37.97869181265141
9.779999999999983 38.09224844838529
9.809999999999983 38.2057456233194
9.839999999999982 38.31918178450508
9.869999999999981 38.43255541785503
9.89999999999998 38.54586510904715
9.92999999999998 38.65910958577014
9.95999999999998 38.77228773698318
9.989999999999979 38.885398608347685
10.019999999999978 38.99224252730787
10.049999999999978 39.08258004275804
10.079999999999977 39.14696068940119
10.109999999999976 39.17888754403876
10.139999999999976 39.17579622773029
10.169999999999975 39.139289618214
10.199999999999974 39.07480303724814
10.229999999999974 38.99081330810457
10.259999999999973 38.8977159804589
10.289999999999973 38.80651830754314
10.319999999999972 38.72750918545678
10.349999999999971 38.66906369415174
10.37999999999997 38.63671853868473
10.40999999999997 38.632618522835685
10.43999999999997 38.65538791997562
10.469999999999969 38.700429577107606
10.499999999999968 38.76060421113292
10.529999999999967 38.82719787263851
10.559999999999967 38.891051961141315
10.589999999999966 38.94371169426385
10.619999999999965 38.97844860632563
10.649999999999965 38.99103115102395
10.679999999999964 38.98015282906823
10.709999999999964 38.947474539068125
10.739999999999963 38.897290053247346
10.769999999999962 38.83587279707596
10.799999999999962 38.770601362494105
10.829999999999961 38.70898529142987
10.85999999999996 38.657719384732495
10.88999999999996 38.62188447569049
10.919999999999959 38.604388047253615
10.949999999999958 38.60570338558651
10.979999999999958 38.623926004769245
11.009999999999957 38.65512579881448
11.039999999999957 38.6939374288843
11.069999999999956 38.73430388918546
11.099999999999955 38.770272181797
11.129999999999955 38.796737360880556
11.159999999999954 38.81004214155516
11.189999999999953 38.808362071742906
11.219999999999953 38.79183754985799
11.249999999999952 38.762449076940314
11.279999999999951 38.723665923426836
11.30999999999995 38.67992618708465
11.33999999999995 38.6360245469696
11.36999999999995 38.596491067832694
11.399999999999949 38.56504018738098
11.429999999999948 38.54415498590336
11.459999999999948 38.5348506341105
11.489999999999947 38.536635721522984
11.519999999999946 38.547664319145014
11.549999999999946 38.56504827155672
11.579999999999945 38.58528098362552
11.609999999999944 38.604712803223755
11.639999999999944 38.6200150576238
11.669999999999943 38.62857489018407
11.699999999999942 38.62877528841621
11.729999999999942 38.62013213045026
11.759999999999941 38.60328014462242
11.78999999999994 38.579819539198375
11.81999999999994 38.552052065934376
11.84999999999994 38.52264736659269
11.879999999999939 38.494286391647215
11.909999999999938 38.46932819923761
11.939999999999937 38.44954013563479
11.969999999999937 38.43592054835163
11.999999999999936 38.42862953382556
12.029999999999935 38.42702866093501
12.059999999999935 38.42981699704668
12.089999999999934 38.435239678634396
12.119999999999933 38.4413378967252
12.149999999999933 38.446206174106436
12.179999999999932 38.44822429002846
12.209999999999932 38.4462366983173
12.239999999999931 38.43966083987093
12.26999999999993 38.42851606027123
12.29999999999993 38.413375471628896
12.329999999999929 38.39525263476571
12.359999999999928 38.375442235324755
12.389999999999928 38.35533821836559
12.419999999999927 38.33625382593283
12.449999999999926 38.31926580480294
12.479999999999926 38.30510025877141
12.509999999999925 38.29407103146272
12.539999999999925 38.28607410208507
12.569999999999924 38.28063422627602
12.599999999999923 38.27699385602544
12.629999999999923 38.2742298972539
12.659999999999922 38.27138154006819
12.689999999999921 38.26757234651366
12.71999999999992 38.26211184072861
12.74999999999992 38.2545655999406
12.77999999999992 38.24478768480703
12.809999999999919 38.23291447605674
12.839999999999918 38.21932390929203
12.869999999999918 38.204568108314746
12.899999999999917 38.18929008349673
12.929999999999916 38.17413625638439
12.959999999999916 38.15967609072057
12.989999999999915 38.14633825485193
13.019999999999914 38.13436986198877
13.049999999999914 38.12382188322123
13.079999999999913 38.114560288112635
13.109999999999912 38.1062992858664
13.139999999999912 38.098650585392434
13.169999999999911 38.091181110596246
13.19999999999991 38.08347120031113
13.22999999999991 38.07516595153149
13.25999999999991 38.066013865701976
13.289999999999909 38.05588906749259
13.319999999999908 38.044795763226375
13.349999999999907 38.032855964632994
13.379999999999907 38.020283525504404
13.409999999999906 38.0073489968117
13.439999999999905 37.99434056183969
13.469999999999905 37.981526336362485
13.499999999999904 37.96912266934081
13.529999999999903 37.95727190140927
13.559999999999903 37.946031528152645
13.589999999999902 37.935375096166204
13.619999999999902 37.92520364283312
13.6499999999999 37.91536526255149
13.6799999999999 37.90567956854575
13.7099999999999 37.895963490481435
13.739999999999899 37.88605500201435
13.769999999999898 37.87583194569757
13.799999999999898 37.86522400610119
13.829999999999897 37.85421693650356
13.859999999999896 37.842849214788714
13.889999999999896 37.8312022590862
13.919999999999895 37.81938605552848
13.949999999999894 37.80752246899243
13.979999999999894 37.795728597203734
14.009999999999893 37.78410230747654
14.039999999999893 37.77271161813793
14.069999999999892 37.76158893644367
14.099999999999891 37.75073044772461
14.12999999999989 37.740100258460586
14.15999999999989 37.72963831644885
14.18999999999989 37.719270732419176
14.219999999999889 37.70892094064615
14.249999999999888 37.69852016729243
14.279999999999887 37.68801590532943
14.309999999999887 37.67737747393765
14.339999999999886 37.66659820295316
14.369999999999886 37.655694262495985
14.399999999999885 37.64470059503323
14.429999999999884 37.633664745593926
14.459999999999884 37.62263958918818
14.489999999999883 37.61167601131136
14.519999999999882 37.600816510409416
14.549999999999882 37.59009048386838
14.579999999999881 37.579511669755775
14.60999999999988 37.56907789293366
14.63999999999988 37.55877294867154
14.66999999999988 37.5485701895269
14.699999999999878 37.538437193324285
14.729999999999878 37.52834080019635
14.759999999999877 37.51825181873026
14.789999999999877 37.50814880406057
14.819999999999876 37.49802048311925
14.849999999999875 37.48786661703894
14.879999999999875 37.477697315449916
14.909999999999874 37.46753102094094
14.939999999999873 37.457391539638074
14.969999999999873 37.44730458967383
14.999999999999872 37.43729436689735
15.029999999999871 37.42738058441837
15.05999999999987 37.417576342150156
15.08999999999987 37.40788704606345
15.11999999999987 37.398310439279385
15.149999999999869 37.388837654949725
15.179999999999868 37.37945507182713
15.209999999999868 37.37014666493134
15.239999999999867 37.36089650203493
15.269999999999866 37.35169104343136
15.299999999999866 37.34252095408915
15.329999999999865 37.333382224255935
15.359999999999864 37.32427650044704
15.389999999999864 37.31521063996766
15.419999999999863 37.3061956042266
15.449999999999863 37.29724488300378
15.479999999999862 37.28837269084477
15.509999999999861 37.279592189862925
15.53999999999986 37.270913971563196
15.56999999999986 37.26234497849211
15.59999999999986 37.25388797860299
15.629999999999859 37.24554162361037
15.659999999999858 37.23730104333597
15.689999999999857 37.22915886174537
15.719999999999857 37.22110647261571
15.749999999999856 37.213135390442744
15.779999999999855 37.2052384943927
15.809999999999855 37.197411009034134
15.839999999999854 37.189651111965716
15.869999999999854 37.181960114879125
15.899999999999853 37.17434222436984
15.929999999999852 37.16680394023102
15.959999999999852 37.15935319454983
15.989999999999851 37.15199836083256
16.01999999999985 37.14474726871954
16.04999999999985 37.13760634991562
16.079999999999853 37.13058001618488
16.109999999999854 37.12367033400337
16.139999999999855 37.116877017906994
16.169999999999856 37.11019772227849
16.199999999999857 37.10362857494275
16.22999999999986 37.09716486867141
16.25999999999986 37.090801810255364
16.28999999999986 37.08453522720558
16.31999999999986 37.07836214419631
16.349999999999863 37.07228116395024
16.379999999999864 37.06629261729271
