# Results for "element" with Id # 2879781 for search config "initial" at position: x0: -500; y0: 0; z0: 193.965517241
# time VELOCITY_X
0.03 0.007102014446936189
0.06 0.029783614290076615
0.09 0.07548454817929791
0.12 0.14946861331214475
0.15 0.25427265025861834
0.18 0.3895398198242007
0.21 0.552159138165067
0.24 0.7366607650328703
0.27 0.9358128516223864
0.30000000000000004 1.141355546081157
0.33000000000000007 1.3447996068371595
0.3600000000000001 1.5382141994058895
0.3900000000000001 1.7149319317377172
0.42000000000000015 1.8701090631471633
0.4500000000000002 2.001094309464628
0.4800000000000002 2.107579274774378
0.5100000000000002 2.1915252577699653
0.5400000000000003 2.256882713394557
0.5700000000000003 2.309138736114623
0.6000000000000003 2.354742668786133
0.6300000000000003 2.4004690117293337
0.6600000000000004 2.4527796385674643
0.6900000000000004 2.5172440917467696
0.7200000000000004 2.598068212490834
0.7500000000000004 2.6977687984843493
0.7800000000000005 2.8170168664612074
0.8100000000000005 2.9546559439923685
0.8400000000000005 3.107886041081552
0.8700000000000006 3.272589776972764
0.9000000000000006 3.443765554976588
0.9300000000000006 3.6160244691059518
0.9600000000000006 3.7841033563083775
0.9900000000000007 3.943346392791881
1.0200000000000007 4.090111894766392
1.0500000000000007 4.222069178497382
1.0800000000000007 4.3383617064605104
1.1100000000000008 4.4396261736057046
1.1400000000000008 4.527871282708773
1.1700000000000008 4.606233239276302
1.2000000000000008 4.678636092889894
1.2300000000000009 4.749392897904476
1.260000000000001 4.822787614052392
1.290000000000001 4.902677578549211
1.320000000000001 4.992152529022912
1.350000000000001 5.093279200602901
1.380000000000001 5.206951325966979
1.410000000000001 5.3328544037685885
1.440000000000001 5.469543834176143
1.470000000000001 5.614624848184835
1.500000000000001 5.765013877469538
1.5300000000000011 5.917254286508573
1.5600000000000012 6.067855248852498
1.5900000000000012 6.213621315079032
1.6200000000000012 6.351942007079013
1.6500000000000012 6.481015413785425
1.6800000000000013 6.599986815704959
1.7100000000000013 6.708992112794796
1.7400000000000013 6.809105368168587
1.7700000000000014 6.902199106575061
1.8000000000000014 6.990734151533585
1.8300000000000014 7.0775019482767645
1.8600000000000014 7.1653459389575165
1.8900000000000015 7.25688941899057
1.9200000000000015 7.3542954609404525
1.9500000000000015 7.459080315942453
1.9800000000000015 7.571995723131752
2.0100000000000016 7.692988446021252
2.0400000000000014 7.8212378062055175
2.070000000000001 7.95526468111514
2.100000000000001 8.093098996026113
2.130000000000001 8.232487693862163
2.1600000000000006 8.371121932420554
2.1900000000000004 8.506861080841496
2.22 8.637932078494606
2.25 8.763085749411895
2.28 8.881696431157042
2.3099999999999996 8.993797274748136
2.3399999999999994 9.100050164149868
2.369999999999999 9.201655694013075
2.399999999999999 9.300214355159083
2.429999999999999 9.397554447958704
2.4599999999999986 9.495544873444837
2.4899999999999984 9.595911675285194
2.5199999999999982 9.700076034601993
2.549999999999998 9.809028590482015
2.579999999999998 9.923250825243507
2.6099999999999977 10.042689275685234
2.6399999999999975 10.16678301174093
2.6699999999999973 10.294539662344445
2.699999999999997 10.424650733116568
2.729999999999997 10.555633453362795
2.7599999999999967 10.685984218623943
2.7899999999999965 10.814328037220259
2.8199999999999963 10.939549297180033
2.849999999999996 11.060891517971344
2.879999999999996 11.1780172842965
2.9099999999999957 11.291023884349435
2.9399999999999955 11.40041481967291
2.9699999999999953 11.507031820876417
2.999999999999995 11.611955827475372
3.029999999999995 11.716388192730925
3.0599999999999947 11.82152490949989
3.0899999999999945 11.928436820018282
3.1199999999999943 12.037967618208798
3.149999999999994 12.150659163164898
3.179999999999994 12.266710474618758
3.2099999999999937 12.38597312818651
3.2399999999999936 12.507981991138992
3.2699999999999934 12.632016713238432
3.299999999999993 12.757186451465277
3.329999999999993 12.882528237161516
3.3599999999999928 13.007108369408442
3.3899999999999926 13.130116318800253
3.4199999999999924 13.250941808686692
3.449999999999992 13.369227850984775
3.479999999999992 13.484895303525716
3.509999999999992 13.598137663621788
3.5399999999999916 13.70938797080712
3.5699999999999914 13.819262520004601
3.599999999999991 13.928488295962504
3.629999999999991 14.037822424191711
3.659999999999991 14.147972383474409
3.6899999999999906 14.259525237628644
3.7199999999999904 14.37289281801787
3.7499999999999902 14.488277803057771
3.77999999999999 14.605663232076106
3.80999999999999 14.724825429059534
3.8399999999999896 14.845367867013952
3.8699999999999894 14.966771425167023
3.8999999999999893 15.088454979891292
3.929999999999989 15.209839460135827
3.959999999999989 15.330408449439965
3.9899999999999887 15.449759103788661
4.019999999999989 15.56763847561092
4.049999999999989 15.68396212082039
4.079999999999989 15.798813905925442
4.10999999999999 15.912427992979744
4.13999999999999 16.025155836537447
4.16999999999999 16.137422486637533
4.19999999999999 16.249677416265584
4.229999999999991 16.362345408768878
4.259999999999991 16.475782745024194
4.289999999999991 16.590243089414873
4.319999999999991 16.705856203608874
4.349999999999992 16.82262107786689
4.379999999999992 16.940413439289173
4.409999999999992 17.059006053876658
4.439999999999992 17.178098945816085
4.469999999999993 17.297355739712604
4.499999999999993 17.416441870544904
4.529999999999993 17.535060429333072
4.559999999999993 17.65298189546673
4.589999999999994 17.770064872777933
4.619999999999994 17.886266082586715
4.649999999999994 18.001639134430988
4.679999999999994 18.11632284759623
4.709999999999995 18.23052099568811
4.739999999999995 18.344476179618315
4.769999999999995 18.458441023655137
4.799999999999995 18.5726500001461
4.829999999999996 18.687294928818282
4.859999999999996 18.802506618255798
4.889999999999996 18.918344298828487
4.919999999999996 19.034793544725275
4.949999999999997 19.15177240710879
4.979999999999997 19.26914459204384
5.009999999999997 19.386737807587725
5.039999999999997 19.504364943312655
5.069999999999998 19.621845569075173
5.099999999999998 19.739025352379095
5.129999999999998 19.855791368696522
5.159999999999998 19.972081856036894
5.189999999999999 20.08788967207872
5.219999999999999 20.203259459481803
5.249999999999999 20.318279228106935
5.279999999999999 20.43306764368757
5.31 20.54775871411117
5.34 20.66248575187457
5.37 20.777366455807154
5.4 20.892490713918043
5.430000000000001 21.00791232351766
5.460000000000001 21.123645307756203
5.490000000000001 21.239664947713504
5.520000000000001 21.35591310907957
5.550000000000002 21.47230698380026
5.580000000000002 21.58875003614452
5.610000000000002 21.705143770080007
5.640000000000002 21.821398929854148
5.670000000000003 21.937444898683502
5.700000000000003 22.05323634523937
5.730000000000003 22.168756542837553
5.760000000000003 22.284017203783907
5.790000000000004 22.399055080163574
5.820000000000004 22.51392593579475
5.850000000000004 22.62869675608587
5.880000000000004 22.743437207946446
5.910000000000005 22.858211380945
5.940000000000005 22.973070740482243
5.970000000000005 23.088049022278355
6.000000000000005 23.20315952507907
6.030000000000006 23.318394950346498
6.060000000000006 23.433729633285914
6.090000000000006 23.54912374332009
6.120000000000006 23.664528832053854
6.150000000000007 23.779893991676225
6.180000000000007 23.895171865381847
6.210000000000007 24.01032382006524
6.240000000000007 24.12532373593719
6.270000000000008 24.240160066432498
6.300000000000008 24.354836047597367
6.330000000000008 24.46936816125466
6.360000000000008 24.583783154190435
6.390000000000009 24.698114064776647
6.420000000000009 24.81239579407645
6.450000000000009 24.92666077513082
6.480000000000009 25.040935245009727
6.51000000000001 25.155236517807722
6.54000000000001 25.269571510332664
6.57000000000001 25.383936607219685
6.60000000000001 25.498318787560198
6.6300000000000106 25.612697789714893
6.660000000000011 25.727048983237495
6.690000000000011 25.841346555910505
6.720000000000011 25.9555666131197
6.7500000000000115 26.069689825256948
6.780000000000012 26.18370333864675
6.810000000000012 26.29760177276823
6.840000000000012 26.411387249245312
6.8700000000000125 26.525068517825723
6.900000000000013 26.638659348577008
6.930000000000013 26.752176436949878
6.960000000000013 26.86563710842153
6.9900000000000135 26.97905711416769
7.020000000000014 27.09244877842078
7.050000000000014 27.205819696910982
7.080000000000014 27.319172105639428
7.1100000000000145 27.432502949300922
7.140000000000015 27.545804591303938
7.170000000000015 27.65906603401232
7.200000000000015 27.7722744641856
7.2300000000000155 27.885416912156735
7.260000000000016 27.998481814013996
7.290000000000016 28.111460292606797
7.320000000000016 28.224347020144066
7.3500000000000165 28.3371405857819
7.380000000000017 28.449843357968984
7.410000000000017 28.56246089393054
7.440000000000017 28.675001000730354
7.4700000000000175 28.78747258791897
7.500000000000018 28.89988446771704
7.530000000000018 29.012244254502367
7.560000000000018 29.124557492729377
7.5900000000000185 29.236827105262808
7.620000000000019 29.34905320831527
7.650000000000019 29.46123329047478
7.680000000000019 29.573362708491423
7.7100000000000195 29.68543541664873
7.74000000000002 29.797444823005662
7.77000000000002 29.90938465745595
7.80000000000002 30.021249742673252
7.8300000000000205 30.13303657859517
7.860000000000021 30.24474368026299
7.890000000000021 30.356371643613745
7.920000000000021 30.467922949515266
7.9500000000000215 30.579401548093816
7.980000000000022 30.690812290128783
8.010000000000021 30.802160286799094
8.04000000000002 30.913450282565083
8.07000000000002 31.024686118823993
8.10000000000002 31.135870349143126
8.130000000000019 31.24700404407212
8.160000000000018 31.35808679727514
8.190000000000017 31.469116918647728
8.220000000000017 31.580091777830877
8.250000000000016 31.691008244836613
8.280000000000015 31.801863165799247
8.310000000000015 31.912653811718346
8.340000000000014 32.023378245548614
8.370000000000013 32.134035566929356
8.400000000000013 32.24462601172039
8.430000000000012 32.35515090341621
8.460000000000012 32.46561247202143
8.49000000000001 32.576013571972396
8.52000000000001 32.68635734087281
8.55000000000001 32.79664684568899
8.580000000000009 32.90688476166651
8.610000000000008 33.017073122025586
8.640000000000008 33.127213165131266
8.670000000000007 33.237305291904065
8.700000000000006 33.3473491314662
8.730000000000006 33.4573436996054
8.760000000000005 33.56728762413226
8.790000000000004 33.67717940348537
8.820000000000004 33.78701766422087
8.850000000000003 33.89680138468096
8.880000000000003 34.006530058663905
8.910000000000002 34.11620378211741
8.940000000000001 34.22582325678443
8.97 34.335389715474534
9.0 34.44490478359261
9.03 34.554370298071646
9.059999999999999 34.663788109392705
9.089999999999998 34.773159892664275
9.119999999999997 34.88248699072293
9.149999999999997 34.99177030655038
9.179999999999996 35.10101025519609
9.209999999999996 35.21020677737721
9.239999999999995 35.31935940893007
9.269999999999994 35.428467393239174
9.299999999999994 35.53752981922594
9.329999999999993 35.64654576603904
9.359999999999992 35.75551443522495
9.389999999999992 35.86443525433654
9.419999999999991 35.97330794062355
9.44999999999999 36.08213251942096
9.47999999999999 36.19090929772461
9.50999999999999 36.29963879951478
9.539999999999988 36.40832167317069
9.569999999999988 36.51695858464426
9.599999999999987 36.62555010965378
9.629999999999987 36.734096638887316
9.659999999999986 36.84259830782826
9.689999999999985 36.95105495851337
9.719999999999985 37.059466135595045
9.749999999999984 37.16783111441852
9.779999999999983 37.27614895437178
9.809999999999983 37.38441857006997
9.839999999999982 37.49263881009799
9.869999999999981 37.600808532686315
9.89999999999998 37.70892666880502
9.92999999999998 37.81699226514143
9.95999999999998 37.92500450267388
9.989999999999979 38.03296268990467
10.019999999999978 38.134868274261684
10.049999999999978 38.22072705692671
10.079999999999977 38.28124163800998
10.109999999999976 38.30993750244105
10.139999999999976 38.30413272800077
10.169999999999975 38.26520779557659
10.199999999999974 38.198327522917474
10.229999999999974 38.111711585312555
10.259999999999973 38.01556465164315
10.289999999999973 37.92080458467101
10.319999999999972 37.83774528677144
10.349999999999971 37.77489161091783
10.37999999999997 37.737986197967885
10.40999999999997 37.72941469247429
10.43999999999997 37.74803104957482
10.469999999999969 37.789413876803124
10.499999999999968 37.84651345056953
10.529999999999967 37.91060259703725
10.559999999999967 37.97240831904755
10.589999999999966 38.02327946646489
10.619999999999965 38.05624245904876
10.649999999999965 38.06681323801316
10.679999999999964 38.05346770333556
10.709999999999964 38.01772019093778
10.739999999999963 37.96381301237816
10.769999999999962 37.898071571518976
10.799999999999962 37.82802154144153
10.829999999999961 37.76139139455272
10.85999999999996 37.705132571869164
10.88999999999996 37.664580760640696
10.919999999999959 37.642857794479035
10.949999999999958 37.6405786817797
10.979999999999958 37.65588717454548
11.009999999999957 37.68480124128638
11.039999999999957 37.72181171153512
11.069999999999956 37.76064756703465
11.099999999999955 37.79510335958027
11.129999999999955 37.819820113041175
11.159999999999954 37.83092133618891
11.189999999999953 37.8264287758186
11.219999999999953 37.80641485813753
11.249999999999952 37.77288554396072
11.279999999999951 37.72942312058177
11.30999999999995 37.68064825374459
11.33999999999995 37.631580636643896
11.36999999999995 37.586985757743676
11.399999999999949 37.55079156473924
11.429999999999948 37.5256445632076
11.459999999999948 37.512652898490906
11.489999999999947 37.5113375490528
11.519999999999946 37.519785429518336
11.549999999999946 37.53497331008601
11.579999999999945 37.55321183734692
11.609999999999944 37.570646701760616
11.639999999999944 37.583750327689785
11.669999999999943 37.58974244500608
11.699999999999942 37.58689056915631
11.729999999999942 37.57465972126734
11.759999999999941 37.553701963807384
11.78999999999994 37.52569748942997
11.81999999999994 37.493077235342426
11.84999999999994 37.45867006895837
11.879999999999939 37.425324156612675
11.909999999999938 37.39555185370583
11.939999999999937 37.3712409425668
11.969999999999937 37.35346363617808
11.999999999999936 37.34240030777489
12.029999999999935 37.33737940263511
12.059999999999935 37.3370204256898
12.089999999999934 37.33945497659205
12.119999999999933 37.342592803515814
12.149999999999933 37.344396501670666
12.179999999999932 37.34312991559656
12.209999999999932 37.33755104801144
12.239999999999931 37.32702933702872
12.26999999999993 37.31157814720979
12.29999999999993 37.29180469434811
12.329999999999929 37.26878987460745
12.359999999999928 37.24391835478124
12.389999999999928 37.21868396658263
12.419999999999927 37.1944965924199
12.449999999999926 37.17251448450667
12.479999999999926 37.153520891639076
12.509999999999925 37.137856848674495
12.539999999999925 37.125414061234565
12.569999999999924 37.11568402849521
12.599999999999923 37.107852860135054
12.629999999999923 37.10092638342768
12.659999999999922 37.09386757486096
12.689999999999921 37.08572822723423
12.71999999999992 37.0757589134235
12.74999999999992 37.06348529396816
12.77999999999992 37.0487439901801
12.809999999999919 37.03167686146022
12.839999999999918 37.01268784066255
12.869999999999918 36.99237082913457
12.899999999999917 36.97142007194627
12.929999999999916 36.950535668063395
12.959999999999916 36.930336406523594
12.989999999999915 36.911290168794324
13.019999999999914 36.893669069961916
13.049999999999914 36.87753280826503
13.079999999999913 36.8627398753188
13.109999999999912 36.8489828295819
13.139999999999912 36.83584115481629
13.169999999999911 36.82284358297993
13.19999999999991 36.809531273640715
13.22999999999991 36.79551387508168
13.25999999999991 36.7805120740874
13.289999999999909 36.76438249373569
13.319999999999908 36.74712337766278
13.349999999999907 36.728862052715144
13.379999999999907 36.70982736801101
13.409999999999906 36.690311916707266
13.439999999999905 36.67062970391387
13.469999999999905 36.65107499228113
13.499999999999904 36.63188739317804
13.529999999999903 36.6132270274498
13.559999999999903 36.59516196517655
13.589999999999902 36.57766840786403
13.619999999999902 36.56064242551559
13.6499999999999 36.54392071154408
13.6799999999999 36.52730690658025
13.7099999999999 36.510599650683396
13.739999999999899 36.49361865417888
13.769999999999898 36.47622566530074
13.799999999999898 36.458338145419575
13.829999999999897 36.43993459092659
13.859999999999896 36.421051597806816
13.889999999999896 36.401773810668026
13.919999999999895 36.382218699692864
13.949999999999894 36.362518589823175
13.979999999999894 36.34280249449597
14.009999999999893 36.323180097472665
14.039999999999893 36.30372973443962
14.069999999999892 36.28449153923279
14.099999999999891 36.26546615277777
14.12999999999989 36.24661864161167
14.15999999999989 36.22788663409339
14.18999999999989 36.209191233068175
14.219999999999889 36.190449036736105
14.249999999999888 36.17158360693699
14.279999999999887 36.15253495088317
14.309999999999887 36.133265973541235
14.339999999999886 36.1137653449537
14.369999999999886 36.0940467405328
14.399999999999885 36.07414488838396
14.429999999999884 36.05410923402443
14.459999999999884 36.03399626834318
14.489999999999883 36.013861645820604
14.519999999999882 35.99375314578612
14.549999999999882 35.97370532323901
14.579999999999881 35.95373639702224
14.60999999999988 35.93384758241795
14.63999999999988 35.914024737255154
14.66999999999988 35.89424189855967
14.699999999999878 35.87446607469095
14.729999999999878 35.8546625479842
14.759999999999877 35.83479994111581
14.789999999999877 35.81485439658818
14.819999999999876 35.79481239109193
14.849999999999875 35.77467192867362
14.879999999999875 35.75444209335368
14.909999999999874 35.73414116028291
14.939999999999873 35.713793637524844
14.969999999999873 35.693426720856415
14.999999999999872 35.67306668442715
15.029999999999871 35.652735694446896
15.05999999999987 35.632449435203476
15.08999999999987 35.61221579970297
15.11999999999987 35.59203473333317
15.149999999999869 35.57189915901036
15.179999999999868 35.55179677356586
15.209999999999868 35.53171240717063
15.239999999999867 35.51163058760507
15.269999999999866 35.491537952030974
15.299999999999866 35.471425196149625
15.329999999999865 35.451288336590444
15.359999999999864 35.43112916963901
15.389999999999864 35.41095492440893
15.419999999999863 35.390777216539306
15.449999999999863 35.37061049053537
15.479999999999862 35.35047019449499
15.509999999999861 35.33037094941325
15.53999999999986 35.310324956489595
15.56999999999986 35.290340835282
15.59999999999986 35.2704230185123
15.629999999999859 35.25057174535692
15.659999999999858 35.230783611925226
15.689999999999857 35.211052568471985
15.719999999999857 35.19137120078133
15.749999999999856 35.171732108222024
15.779999999999855 35.15212918924921
15.809999999999855 35.13255866990741
15.839999999999854 35.11301975790974
15.869999999999854 35.09351486247597
15.899999999999853 35.07404938178546
15.929999999999852 35.054631112112425
15.959999999999852 35.03526938232962
15.989999999999851 35.01597404559044
16.01999999999985 34.996754466915874
16.04999999999985 34.977618636832716
16.079999999999853 34.95857251720064
16.109999999999854 34.93961968830823
16.139999999999855 34.92076132302159
16.169999999999856 34.901996469956345
16.199999999999857 34.883322590059294
16.22999999999986 34.864736261711286
16.25999999999986 34.846233950921516
16.28999999999986 34.82781274315631
16.31999999999986 34.80947094480835
16.349999999999863 34.7912084848692
