# Results for "element" with Id # 2879333 for search config "initial" at position: x0: -500; y0: 0; z0: 25.8620689655
# time VELOCITY_X
0.03 0.004170760994836703
0.06 0.018819624717726607
0.09 0.04991239274113622
0.12 0.10195486426622247
0.15 0.17745545081069813
0.18 0.2767241759174002
0.21 0.3979225780925254
0.24 0.5373193659044336
0.27 0.6897098343992849
0.30000000000000004 0.8489509357645129
0.33000000000000007 1.0085580004509138
0.3600000000000001 1.1623066702433988
0.3900000000000001 1.3047855964816417
0.42000000000000015 1.431852005154493
0.4500000000000002 1.5409526871756132
0.4800000000000002 1.6312865831186385
0.5100000000000002 1.7038005273495789
0.5400000000000003 1.7610254576976718
0.5700000000000003 1.8067749269149198
0.6000000000000003 1.8457396570859779
0.6300000000000003 1.8830200488035056
0.6600000000000004 1.9236423362073538
0.6900000000000004 1.9721033357100042
0.7200000000000004 2.031983819269988
0.7500000000000004 2.1056622239610463
0.7800000000000005 2.194149741073975
0.8100000000000005 2.297055969978396
0.8400000000000005 2.41268239920298
0.8700000000000006 2.538229968326143
0.9000000000000006 2.6700976539081527
0.9300000000000006 2.804242003714159
0.9600000000000006 2.9365632464470703
0.9900000000000007 3.063282297809969
1.0200000000000007 3.1812747761145452
1.0500000000000007 3.2883329121888014
1.0800000000000007 3.383333611553077
1.1100000000000008 3.466300237299535
1.1400000000000008 3.538356021647653
1.1700000000000008 3.601577325579772
1.2000000000000008 3.6587641753328826
1.2300000000000009 3.7131526844906273
1.260000000000001 3.7680984496183894
1.290000000000001 3.8267614787058255
1.320000000000001 3.89182170014882
1.350000000000001 3.9652499664322303
1.380000000000001 4.048153282999438
1.410000000000001 4.140705460590164
1.440000000000001 4.242166246533703
1.470000000000001 4.350983943760221
1.500000000000001 4.464969220491659
1.5300000000000011 4.581521799907703
1.5600000000000012 4.6978874617743465
1.5900000000000012 4.811420617663484
1.6200000000000012 4.919827827502911
1.6500000000000012 5.021370012743144
1.6800000000000013 5.115005578349778
1.7100000000000013 5.200462755629204
1.7400000000000013 5.2782366061004335
1.7700000000000014 5.349513541202734
1.8000000000000014 5.416033133633955
1.8300000000000014 5.4799027173391766
1.8600000000000014 5.543384233497289
1.8900000000000015 5.608674665187258
1.9200000000000015 5.677701123056523
1.9500000000000015 5.751949362410571
1.9800000000000015 5.832340572275237
2.0100000000000016 5.919166150601054
2.0400000000000014 6.0120843985248005
2.070000000000001 6.110177171339325
2.100000000000001 6.212059027856344
2.130000000000001 6.316026774505583
2.1600000000000006 6.420233893101484
2.1900000000000004 6.52287244082264
2.22 6.622344790209826
2.25 6.717409042041169
2.28 6.807284948369916
2.3099999999999996 6.891711418551192
2.3399999999999994 6.970951701195104
2.369999999999999 7.045747607276833
2.399999999999999 7.117229106090601
2.429999999999999 7.186789781480186
2.4599999999999986 7.255941577323487
2.4899999999999984 7.326163753822661
2.5199999999999982 7.3987609345749075
2.549999999999998 7.474743642266379
2.579999999999998 7.55474201729549
2.6099999999999977 7.6389598066187645
2.6399999999999975 7.727171577024277
2.6699999999999973 7.818761846390938
2.699999999999997 7.912800830036625
2.729999999999997 8.008148125661064
2.7599999999999967 8.10357321063741
2.7899999999999965 8.197880312548907
2.8199999999999963 8.29002515767242
2.849999999999996 8.37921228866524
2.879999999999996 8.464963938484665
2.9099999999999957 8.547154598738636
2.9399999999999955 8.62600908053314
2.9699999999999953 8.702065637123951
2.999999999999995 8.7761091992012
3.029999999999995 8.849082607935483
3.0599999999999947 8.921985648854829
3.0899999999999945 8.995772531971635
3.1199999999999943 9.071258191596097
3.149999999999994 9.14904247507673
3.179999999999994 9.229459129222201
3.2099999999999937 9.3125537283242
3.2399999999999936 9.398091615818998
3.2699999999999934 9.485593865279395
3.299999999999993 9.574396507293656
3.329999999999993 9.66372608256362
3.3599999999999928 9.752783169609216
3.3899999999999926 9.84082502386048
3.4199999999999924 9.927238883484081
3.449999999999992 10.011598777631225
3.479999999999992 10.093700658112674
3.509999999999992 10.173573133006126
3.5399999999999916 10.251463732790716
3.5699999999999914 10.327803194567053
3.599999999999991 10.403152437359145
3.629999999999991 10.47813850443768
3.659999999999991 10.55338662227398
3.6899999999999906 10.629455610881237
3.7199999999999904 10.706783206058532
3.7499999999999902 10.785646527172084
3.77999999999999 10.866141111637424
3.80999999999999 10.948179849209565
3.8399999999999896 11.031511012699204
3.8699999999999894 11.115752620157535
3.8999999999999893 11.20043877384854
3.929999999999989 11.285072554055152
3.959999999999989 11.369179594836279
3.9899999999999887 11.4523566587892
4.019999999999989 11.534310314540974
4.049999999999989 11.61488209649217
4.079999999999989 11.694058134121093
4.10999999999999 11.771962989934156
4.13999999999999 11.848839144192109
4.16999999999999 11.925015028469282
4.19999999999999 12.000865591091644
4.229999999999991 12.076769977866856
4.259999999999991 12.153070988856335
4.289999999999991 12.230040546272008
4.319999999999991 12.307854550246983
4.349999999999992 12.386579322212306
4.379999999999992 12.466170482019646
4.409999999999992 12.546483727999675
4.439999999999992 12.627295737397574
4.469999999999993 12.708332406487653
4.499999999999993 12.789301000745397
4.529999999999993 12.869922539241
4.559999999999993 12.949960902645465
4.589999999999994 13.029245693002544
4.619999999999994 13.107686708963096
4.649999999999994 13.185278926438418
4.679999999999994 13.26209796932947
4.709999999999995 13.338287093329228
4.739999999999995 13.414037576473058
4.769999999999995 13.489565025790771
4.799999999999995 13.56508441623772
4.829999999999996 13.640786658381248
4.859999999999996 13.716819166664813
4.889999999999996 13.793272321531305
4.919999999999996 13.870172965300469
4.949999999999997 13.947485234483974
4.979999999999997 14.025118207938416
5.009999999999997 14.10293913040261
5.039999999999997 14.180790428235422
5.069999999999998 14.25850841840737
5.099999999999998 14.335941545793304
5.129999999999998 14.412966162938652
5.159999999999998 14.489498254856628
5.189999999999999 14.56550005614477
5.219999999999999 14.640981138011833
5.249999999999999 14.715994183733493
5.279999999999999 14.790626249406122
5.31 14.864986762013878
5.34 14.939193794907165
5.37 15.013360258901152
5.4 15.087581555334708
5.430000000000001 15.161925978353375
5.460000000000001 15.236428765196285
5.490000000000001 15.31109022853915
5.520000000000001 15.38587791945422
5.550000000000002 15.460732319601341
5.580000000000002 15.535575195413905
5.610000000000002 15.610319501998209
5.640000000000002 15.684879620150276
5.670000000000003 15.75918074943567
5.700000000000003 15.83316645112388
5.730000000000003 15.906803609294371
5.760000000000003 15.980084418956872
5.790000000000004 16.053025373404715
5.820000000000004 16.12566356584862
5.850000000000004 16.198050905816366
5.880000000000004 16.27024704929927
5.910000000000005 16.34231193537841
5.940000000000005 16.414298807880698
5.970000000000005 16.486248486698045
6.000000000000005 16.558185459152213
6.030000000000006 16.630116114269594
6.060000000000006 16.702029174921947
6.090000000000006 16.77389812672564
6.120000000000006 16.84568522643735
6.150000000000007 16.91734651846072
6.180000000000007 16.988837210439627
6.210000000000007 17.06011676193425
6.240000000000007 17.13115311769083
6.270000000000008 17.201925655383114
6.300000000000008 17.272426596569883
6.330000000000008 17.34266082567919
6.360000000000008 17.412644251170956
6.390000000000009 17.482401003858882
6.420000000000009 17.55195988243647
6.450000000000009 17.621350515374985
6.480000000000009 17.69059970903007
6.51000000000001 17.75972839658688
6.54000000000001 17.82874950213939
6.57000000000001 17.897666904743886
6.60000000000001 17.96647554510796
6.6300000000000106 18.035162579094575
6.660000000000011 18.10370936533127
6.690000000000011 18.172093991189712
6.720000000000011 18.24029399856533
6.7500000000000115 18.308288971383842
6.780000000000012 18.376062687847252
6.810000000000012 18.443604613072008
6.840000000000012 18.51091060300656
6.8700000000000125 18.577982793904585
6.900000000000013 18.644828750770643
6.930000000000013 18.711460032254312
6.960000000000013 18.777890386953054
6.9900000000000135 18.84413382473708
7.020000000000014 18.910202804664742
7.050000000000014 18.97610674913924
7.080000000000014 19.041851039629798
7.1100000000000145 19.107436579717472
7.140000000000015 19.172859935963327
7.170000000000015 19.238113996800397
7.200000000000015 19.303189030784736
7.2300000000000155 19.36807398573967
7.260000000000016 19.432757852652358
7.290000000000016 19.497230923158668
7.320000000000016 19.561485794749967
7.3500000000000165 19.625518019095686
7.380000000000017 19.68932634051452
7.410000000000017 19.752912525754763
7.440000000000017 19.816280836358985
7.4700000000000175 19.879437235054986
7.500000000000018 19.942388443653172
7.530000000000018 20.005140979762324
7.560000000000018 20.067700293132898
7.5900000000000185 20.13007010134747
7.620000000000019 20.192251992789664
7.650000000000019 20.254245326648594
7.680000000000019 20.316047420712582
7.7100000000000195 20.37765398280728
7.74000000000002 20.43905971439532
7.77000000000002 20.50025899857332
7.80000000000002 20.561246580233217
7.8300000000000205 20.62201815371143
7.860000000000021 20.68257079081529
7.890000000000021 20.742903166832015
7.920000000000021 20.80301557049043
7.9500000000000215 20.862909711838718
7.980000000000022 20.922588366447062
8.010000000000021 20.982054912256874
8.04000000000002 21.041312824947397
8.07000000000002 21.10036519851327
8.10000000000002 21.15921434977424
8.130000000000019 21.21786155102756
8.160000000000018 21.276306915923712
8.190000000000017 21.334549442505654
8.220000000000017 21.392587197377107
8.250000000000016 21.45041760801212
8.280000000000015 21.508037818636
8.310000000000015 21.565445060192502
8.340000000000014 21.62263698648266
8.370000000000013 21.679611936109858
8.400000000000013 21.736369091843187
8.430000000000012 21.792908523987194
8.460000000000012 21.849231119754158
8.49000000000001 21.90533841522651
8.52000000000001 21.961232357533394
8.55000000000001 22.016915031937444
8.580000000000009 22.07238839086168
8.610000000000008 22.127654019204655
8.640000000000008 22.182712963431648
8.670000000000007 22.237565642100805
8.700000000000006 22.29221184402057
8.730000000000006 22.346650808767386
8.760000000000005 22.40088137432074
8.790000000000004 22.454902168241865
8.820000000000004 22.508711815541172
8.850000000000003 22.56230913574212
8.880000000000003 22.61569330467001
8.910000000000002 22.66886396248445
8.940000000000001 22.721821257528063
8.97 22.77456582431106
9.0 22.827098702737914
9.03 22.87942121232463
9.059999999999999 22.931534800270384
9.089999999999998 22.983440884450218
9.119999999999997 23.03514071150917
9.149999999999997 23.086635246915726
9.179999999999996 23.137925108892404
9.209999999999996 23.18901055202862
9.239999999999995 23.239891499692888
9.269999999999994 23.290567617899534
9.299999999999994 23.341038418465367
9.329999999999993 23.39130337679282
9.359999999999992 23.441362048284418
9.389999999999992 23.49121416859731
9.419999999999991 23.540859726016134
9.44999999999999 23.590298998668374
9.47999999999999 23.639532554058988
9.50999999999999 23.688561213638643
9.539999999999988 23.73738598891798
9.569999999999988 23.78600799912197
9.599999999999987 23.834428381125797
9.629999999999987 23.882648203607683
9.659999999999986 23.93066839663009
9.689999999999985 23.97848970486429
9.719999999999985 24.02611266876206
9.749999999999984 24.07353763388067
9.779999999999983 24.120764784476336
9.809999999999983 24.167794196187074
9.839999999999982 24.214625900336486
9.869999999999981 24.261259950937003
9.89999999999998 24.307696485618997
9.92999999999998 24.353935772783956
9.95999999999998 24.399978239830364
9.989999999999979 24.44582447989505
10.019999999999978 24.488061589515617
10.049999999999978 24.519918120542883
10.079999999999977 24.53424601610398
10.109999999999976 24.525557310639115
10.139999999999976 24.49098903469141
10.169999999999975 24.430678512039577
10.199999999999974 24.347703324657584
10.229999999999974 24.24765899758265
10.259999999999973 24.13794662240802
10.289999999999973 24.02686328652839
10.319999999999972 23.922607045672144
10.349999999999971 23.83231588264872
10.37999999999997 23.76125379445793
10.40999999999997 23.712237589035205
10.43999999999997 23.685367912337245
10.469999999999969 23.678091216094263
10.499999999999968 23.685579935860247
10.529999999999967 23.70138024124423
10.559999999999967 23.718244534656673
10.589999999999966 23.729043286799428
10.619999999999965 23.72764114939922
10.649999999999965 23.709627458817042
10.679999999999964 23.67281115983686
10.709999999999964 23.61742236419559
10.739999999999963 23.54600258284908
10.769999999999962 23.463007138337623
10.799999999999962 23.37418022945997
10.829999999999961 23.28579040885647
10.85999999999996 23.203828641642218
10.88999999999996 23.133271494733172
10.919999999999959 23.07749937975838
10.949999999999958 23.037936608152272
10.979999999999958 23.013949765057514
11.009999999999957 23.003007458877452
11.039999999999957 23.001071840056266
11.069999999999956 23.00316419574049
11.099999999999955 23.004026750093423
11.129999999999955 22.99879296425957
11.159999999999954 22.9835804386191
11.189999999999953 22.955933615518056
11.219999999999953 22.915065913823938
11.249999999999952 22.86187932968523
11.279999999999951 22.79876966787038
11.30999999999995 22.729253090538943
11.33999999999995 22.657470887674428
11.36999999999995 22.58764178944728
11.399999999999949 22.52353378064905
11.429999999999948 22.468020636265976
11.459999999999948 22.422773908708052
11.489999999999947 22.38812124542781
11.519999999999946 22.363079477372906
11.549999999999946 22.345548745214987
11.579999999999945 22.332634644562482
11.609999999999944 22.321051150225976
11.639999999999944 22.307549453003958
11.669999999999943 22.289317494208554
11.699999999999942 22.264301699694165
11.729999999999942 22.231415017393598
11.759999999999941 22.19061192331992
11.78999999999994 22.142829171917036
11.81999999999994 22.089808210738994
11.84999999999994 22.03382913820994
11.879999999999939 21.97739524024372
11.909999999999938 21.922910674409536
11.939999999999937 21.8723917754227
11.969999999999937 21.827245452376406
11.999999999999936 21.78813751453649
12.029999999999935 21.754961077043625
12.059999999999935 21.726902158098863
12.089999999999934 21.70258778518204
12.119999999999933 21.680292723421672
12.149999999999933 21.658175284050003
12.179999999999932 21.63451104339378
12.209999999999932 21.607895671012827
12.239999999999931 21.577393895745892
12.26999999999993 21.5426199680421
12.29999999999993 21.50374458437913
12.329999999999929 21.461432798721574
12.359999999999928 21.416725728787576
12.389999999999928 21.370884905832746
12.419999999999927 21.32522132205493
12.449999999999926 21.28093142713913
12.479999999999926 21.238959739405832
12.509999999999925 21.19990291860531
12.539999999999925 21.16396388458473
12.569999999999924 21.130957735715434
12.599999999999923 21.100364712186206
12.629999999999923 21.071420025799426
12.659999999999922 21.043226625020303
12.689999999999921 21.014875216613895
12.71999999999992 20.98555619088034
12.74999999999992 20.954650305863915
12.77999999999992 20.921788658030593
12.809999999999919 20.88687703172254
12.839999999999918 20.85008453730672
12.869999999999918 20.811800882058456
12.899999999999917 20.772570146376857
12.929999999999916 20.733011191355978
12.959999999999916 20.693735624887132
12.989999999999915 20.655273631110866
13.019999999999914 20.618016121630987
13.049999999999914 20.58217893070094
13.079999999999913 20.54779156941085
13.109999999999912 20.51470980984771
13.139999999999912 20.482648493191455
13.169999999999911 20.451228769850022
13.19999999999991 20.420032695463647
13.22999999999991 20.388657807615143
13.25999999999991 20.356764949763857
13.289999999999909 20.32411403351317
13.319999999999908 20.290584392059987
13.349999999999907 20.256178585526733
13.379999999999907 20.221010675809374
13.409999999999906 20.18528182708969
13.439999999999905 20.149247404689916
13.469999999999905 20.113180423909736
13.499999999999904 20.07733621205856
13.529999999999903 20.041922550166547
13.559999999999903 20.007078487398037
13.589999999999902 19.972863649994636
13.619999999999902 19.939258391791604
13.6499999999999 19.906173752973476
13.6799999999999 19.873469066507397
13.7099999999999 19.840974298612416
13.739999999999899 19.80851389148983
13.769999999999898 19.77592899087138
13.799999999999898 19.743095436232977
13.829999999999897 19.709935670876135
13.859999999999896 19.676423664496426
13.889999999999896 19.64258290666214
13.919999999999895 19.60847839560714
13.949999999999894 19.57420421372258
13.979999999999894 19.539868684639607
14.009999999999893 19.505579221115568
14.039999999999893 19.471428807500732
14.069999999999892 19.43748566223217
14.099999999999891 19.403787074422375
14.12999999999989 19.370337782803276
14.15999999999989 19.337112651011722
14.18999999999989 19.30406287235769
14.219999999999889 19.271124561114654
14.249999999999888 19.238228391196834
14.279999999999887 19.205308942419244
14.309999999999887 19.172312586534755
14.339999999999886 19.139203047240656
14.369999999999886 19.105964151218295
14.399999999999885 19.07259969719602
14.429999999999884 19.039130750050607
14.459999999999884 19.00559096942486
14.489999999999883 18.97202077860237
14.519999999999882 18.938461251686487
14.549999999999882 18.904948546865295
14.579999999999881 18.87150955969137
14.60999999999988 18.83815924517402
14.63999999999988 18.80489979585974
14.66999999999988 18.771721601507608
14.699999999999878 18.738605687802927
14.729999999999878 18.70552716464777
14.759999999999877 18.672459125850267
14.789999999999877 18.639376435609186
14.819999999999876 18.606258904941107
14.849999999999875 18.573093489762698
14.879999999999875 18.539875308123456
14.909999999999874 18.506607451056063
14.939999999999873 18.473299724733526
14.969999999999873 18.439966592078385
14.999999999999872 18.406624667943923
15.029999999999871 18.373290150471988
15.05999999999987 18.33997654423409
15.08999999999987 18.306692961619405
15.11999999999987 18.273443184358108
15.149999999999869 18.240225547966695
15.179999999999868 18.207033594357107
15.209999999999868 18.173857338435212
15.239999999999867 18.14068492438995
15.269999999999866 18.10750441351837
15.299999999999866 18.074305447778453
15.329999999999865 18.041080570512413
15.359999999999864 18.007826048881476
15.389999999999864 17.974542121723196
15.419999999999863 17.941232681423656
15.449999999999863 17.90790447290897
15.479999999999862 17.874565953229595
15.509999999999861 17.84122599246474
15.53999999999986 17.807892605083005
15.56999999999986 17.774571882134957
15.59999999999986 17.741267258085728
15.629999999999859 17.70797919149374
15.659999999999858 17.674705275701378
15.689999999999857 17.641440737497184
15.719999999999857 17.608179231761344
15.749999999999856 17.574913807264956
15.779999999999855 17.541637901929448
15.809999999999855 17.508346230009558
15.839999999999854 17.475035448470827
15.869999999999854 17.44170452758741
15.899999999999853 17.40835479567962
15.929999999999852 17.37498966964825
15.959999999999852 17.341614125929006
15.989999999999851 17.308233998441864
16.01999999999985 17.274855205087064
16.04999999999985 17.241483006972143
16.079999999999853 17.208121395015613
16.109999999999854 17.174772676205404
16.139999999999855 17.141437301695497
16.169999999999856 17.108113945115758
16.199999999999857 17.074799807607395
16.22999999999986 17.041491098028253
16.25999999999986 17.00818361516274
16.28999999999986 16.974873350514173
