# Results for "element" with Id # 2873772 for search config "initial" at position: x0: -500; y0: 0; z0: 258.620689655
# time VELOCITY_X
0.03 0.007191990334742438
0.06 0.030122151390362225
0.09 0.07629698002427115
0.12 0.1510240224368057
0.15 0.25685587722623743
0.18 0.3934218010947381
0.21 0.5575687285212346
0.24 0.7437610156639156
0.27 0.9446844209415851
0.30000000000000004 1.151989328514516
0.33000000000000007 1.3570997053087013
0.3600000000000001 1.5520111046162532
0.3900000000000001 1.7300044022486745
0.42000000000000015 1.886211973043971
0.4500000000000002 2.017988883531878
0.4800000000000002 2.125061829891727
0.5100000000000002 2.2094508609920247
0.5400000000000003 2.275180977988973
0.5700000000000003 2.3278201383222683
0.6000000000000003 2.373895061643178
0.6300000000000003 2.4202452326579977
0.6600000000000004 2.4733780966378762
0.6900000000000004 2.5388848883755895
0.7200000000000004 2.6209676790425354
0.7500000000000004 2.722115348653873
0.7800000000000005 2.8429508017017295
0.8100000000000005 2.982255358314365
0.8400000000000005 3.1371602855665506
0.8700000000000006 3.303481108817009
0.9000000000000006 3.4761586765279984
0.9300000000000006 3.6497627486598097
0.9600000000000006 3.8190097236374307
0.9900000000000007 3.979246335651788
1.0200000000000007 4.126855731885718
1.0500000000000007 4.259550901620721
1.0800000000000007 4.376532154447218
1.1100000000000008 4.478499058159332
1.1400000000000008 4.567521514294027
1.1700000000000008 4.646787967717442
1.2000000000000008 4.720259747513755
1.2300000000000009 4.792268179552939
1.260000000000001 4.867094789788105
1.290000000000001 4.948574530070427
1.320000000000001 5.039757825894595
1.350000000000001 5.1426600477998345
1.380000000000001 5.258117633900766
1.410000000000001 5.385759517228204
1.440000000000001 5.52409170839692
1.470000000000001 5.670682749563382
1.500000000000001 5.822429083686029
1.5300000000000011 5.975872829392303
1.5600000000000012 6.127540529559108
1.5900000000000012 6.274270456330656
1.6200000000000012 6.41349808833422
1.6500000000000012 6.543474233967487
1.6800000000000013 6.663397484781463
1.7100000000000013 6.773451506231086
1.7400000000000013 6.874747194076128
1.7700000000000014 6.969178944574268
1.8000000000000014 7.059212252546828
1.8300000000000014 7.147625789718925
1.8600000000000014 7.2372344993731925
1.8900000000000015 7.330620883570898
1.9200000000000015 7.429899639993795
1.9500000000000015 7.5365365072862245
1.9800000000000015 7.651236141200561
2.0100000000000016 7.773906738751742
2.0400000000000014 7.903701644628866
2.070000000000001 8.039130986685482
2.100000000000001 8.178230106809439
2.130000000000001 8.318766689700922
2.1600000000000006 8.45846544839223
2.1900000000000004 8.595228231289056
2.22 8.727328556418309
2.25 8.85356271146987
2.28 8.973344363401388
2.3099999999999996 9.08673559063505
2.3399999999999994 9.194413749548392
2.369999999999999 9.297579931656259
2.399999999999999 9.397820300370977
2.429999999999999 9.49693577751785
2.4599999999999986 9.596758003470493
2.4899999999999984 9.698970070281192
2.5199999999999982 9.804949256123697
2.549999999999998 9.915646111345332
2.579999999999998 10.031510120215142
2.6099999999999977 10.152467244840553
2.6399999999999975 10.277949444399479
2.6699999999999973 10.406971243216807
2.699999999999997 10.538244049534194
2.729999999999997 10.670315588238163
2.7599999999999967 10.801719794365507
2.7899999999999965 10.931121982082814
2.8199999999999963 11.057445089915873
2.849999999999996 11.179965175082785
2.879999999999996 11.29836782702052
2.9099999999999957 11.412761405508236
2.9399999999999955 11.523647520350984
2.9699999999999953 11.631853476954396
2.999999999999995 11.738435069412292
3.029999999999995 11.844560751587775
3.0599999999999947 11.95138962799645
3.0899999999999945 12.059955792220881
3.1199999999999943 12.171070356224313
3.149999999999994 12.285250245336886
3.179999999999994 12.402679755839374
3.2099999999999937 12.523207328199778
3.2399999999999936 12.646376348120995
3.2699999999999934 12.771485409406488
3.299999999999993 12.897670680618033
3.329999999999993 13.024001070419851
3.3599999999999928 13.149575951474825
3.3899999999999926 13.273615348464284
3.4199999999999924 13.395533675300486
3.449999999999992 13.514990165603832
3.479999999999992 13.631911837902866
3.509999999999992 13.746487863098551
3.5399999999999916 13.859137223777985
3.5699999999999914 13.970454249061312
3.599999999999991 14.081138701639995
3.629999999999991 14.191918391507258
3.659999999999991 14.303472693187496
3.6899999999999906 14.416364851494455
3.7199999999999904 14.530989671796704
3.7499999999999902 14.647541278761919
3.77999999999999 14.766003318958886
3.80999999999999 14.8861615359493
3.8399999999999896 15.00763631879455
3.8699999999999894 15.129930852346508
3.8999999999999893 15.252489069577454
3.929999999999989 15.374756848172282
3.959999999999989 15.496239860201031
3.9899999999999887 15.61655214882434
4.019999999999989 15.735450771020654
4.049999999999989 15.852853549431888
4.079999999999989 15.968838917769691
4.10999999999999 16.083628801904204
4.13999999999999 16.197557239800464
4.16999999999999 16.31102882636601
4.19999999999999 16.424471943189904
4.229999999999991 16.538292030598974
4.259999999999991 16.652829876549326
4.289999999999991 16.768329097777713
4.319999999999991 16.884915783826248
4.349999999999992 17.002591815597306
4.379999999999992 17.121241825758496
4.409999999999992 17.240652307609828
4.439999999999992 17.36054015425308
4.469999999999993 17.48058704059153
4.499999999999993 17.600475623031855
4.529999999999993 17.719923551553386
4.559999999999993 17.838711742780927
4.589999999999994 17.956704178715736
4.619999999999994 18.073857567113645
4.649999999999994 18.19022039550672
4.679999999999994 18.30592209344868
4.709999999999995 18.421154056654974
4.739999999999995 18.53614507577387
4.769999999999995 18.651134178132544
4.799999999999995 18.766344000102894
4.829999999999996 18.88195756772827
4.859999999999996 18.998100822433535
4.889999999999996 19.114832460978764
4.919999999999996 19.232141764214546
4.949999999999997 19.349954170860165
4.979999999999997 19.46814351464579
5.009999999999997 19.586549172591326
5.039999999999997 19.70499593408844
5.069999999999998 19.823314229567867
5.099999999999998 19.9413584582128
5.129999999999998 20.05902150181974
5.159999999999998 20.17624405050235
5.189999999999999 20.29301802770156
5.219999999999999 20.409384103258077
5.249999999999999 20.525423944457057
5.279999999999999 20.64124840286693
5.31 20.756983215393156
5.34 20.872753978183244
5.37 20.988672123351623
5.4 21.104823406516996
5.430000000000001 21.22126003608224
5.460000000000001 21.337997092884635
5.490000000000001 21.455013364695027
5.520000000000001 21.57225621353675
5.550000000000002 21.689649662420845
5.580000000000002 21.807104575502642
5.610000000000002 21.92452964071971
5.640000000000002 22.041841855886435
5.670000000000003 22.158975359276646
5.700000000000003 22.27588770957964
5.730000000000003 22.39256306933042
5.760000000000003 22.50901213563816
5.790000000000004 22.62526904457536
5.820000000000004 22.741385807292712
5.850000000000004 22.857425082464534
5.880000000000004 22.9734522277541
5.910000000000005 23.089527593110372
5.940000000000005 23.20569992689265
5.970000000000005 23.3220015792338
6.000000000000005 23.43844593379078
6.030000000000006 23.555027211873814
6.060000000000006 23.67172250854416
6.090000000000006 23.788495670973862
6.120000000000006 23.90530244165292
6.150000000000007 24.022096180525445
6.180000000000007 24.138833459015714
6.210000000000007 24.255478881876908
6.240000000000007 24.372008626755104
6.270000000000008 24.488412376257145
6.300000000000008 24.604693527848582
6.330000000000008 24.720867776975417
6.360000000000008 24.83696035373543
6.390000000000009 24.953002332948284
6.420000000000009 25.069026517793777
6.450000000000009 25.185063413127978
6.480000000000009 25.301137758892747
6.51000000000001 25.417265995083323
6.54000000000001 25.53345489318867
6.57000000000001 25.64970143491266
6.60000000000001 25.765993865244162
6.6300000000000106 25.882313711404304
6.660000000000011 25.998638458603104
6.690000000000011 26.11494451665713
6.720000000000011 26.23121010174294
6.7500000000000115 26.347417693669428
6.780000000000012 26.463555803744242
6.810000000000012 26.579619888920977
6.840000000000012 26.6956123624634
6.8700000000000125 26.811541763408094
6.900000000000013 26.927421244160083
6.930000000000013 27.043266607531127
6.960000000000013 27.15909416199557
6.9900000000000135 27.274918667708008
7.020000000000014 27.390751616418434
7.050000000000014 27.50660003078514
7.080000000000014 27.622465893078854
7.1100000000000145 27.73834622894208
7.140000000000015 27.854233790080322
7.170000000000015 27.970118211082738
7.200000000000015 28.085987465798446
7.2300000000000155 28.20182942434184
7.260000000000016 28.31763331298398
7.290000000000016 28.433390904699838
7.320000000000016 28.549097312750956
7.3500000000000165 28.664751317023974
7.380000000000017 28.780355215270855
7.410000000000017 28.89591425028599
7.440000000000017 29.01143571280632
7.4700000000000175 29.126927853047473
7.500000000000018 29.242398748328835
7.530000000000018 29.357855269773495
7.560000000000018 29.47330226919868
7.5900000000000185 29.588742071886692
7.620000000000019 29.70417431740519
7.650000000000019 29.819596144585976
7.680000000000019 29.935002674460964
7.7100000000000195 30.050387711221312
7.74000000000002 30.165744559407347
7.77000000000002 30.281066847986583
7.80000000000002 30.396349258274583
7.8300000000000205 30.511588071529463
7.860000000000021 30.626781480019066
7.890000000000021 30.74192963852181
7.920000000000021 30.857034467145464
7.9500000000000215 30.972099246484753
7.980000000000022 31.087128069441956
8.010000000000021 31.20212522756818
8.04000000000002 31.317094612872456
8.07000000000002 31.43203920889808
8.10000000000002 31.546960728671817
8.130000000000019 31.66185943514574
8.160000000000018 31.77673415461289
8.190000000000017 31.89158246871375
8.220000000000017 32.00640104941206
8.250000000000016 32.12118608557167
8.280000000000015 32.235933741603255
8.310000000000015 32.35064058861478
8.340000000000014 32.46530395583995
8.370000000000013 32.57992216356398
8.400000000000013 32.69449461601579
8.430000000000012 32.80902175176928
8.460000000000012 32.923504867000624
8.49000000000001 33.037945842168284
8.52000000000001 33.15234681247577
8.55000000000001 33.26670982705396
8.580000000000009 33.381036540361485
8.610000000000008 33.49532797233001
8.640000000000008 33.60958436282683
8.670000000000007 33.72380513259345
8.700000000000006 33.837988948578904
8.730000000000006 33.95213387868322
8.760000000000005 34.06623761082646
8.790000000000004 34.18029770404141
8.820000000000004 34.29431183833583
8.850000000000003 34.408278031863134
8.880000000000003 34.5221948001696
8.910000000000002 34.63606124117983
8.940000000000001 34.74987704005417
8.97 34.86364239841503
9.0 34.97735790193194
9.03 35.09102434667345
9.059999999999999 35.204642548912275
9.089999999999998 35.31821316339889
9.119999999999997 35.431736532293364
9.149999999999997 35.545212581523835
9.179999999999996 35.65864077445474
9.209999999999996 35.772020125009085
9.239999999999995 35.88534926472227
9.269999999999994 35.998626551490105
9.299999999999994 36.111850203297834
9.329999999999993 36.225018438739234
9.359999999999992 36.3381296058696
9.389999999999992 36.451182283902234
9.419999999999991 36.56417534672377
9.44999999999999 36.677107982875576
9.47999999999999 36.78997967237681
9.50999999999999 36.90279012649118
9.539999999999988 37.01553920040602
9.569999999999988 37.12822679183117
9.599999999999987 37.24085273847394
9.629999999999987 37.35341672767896
9.659999999999986 37.46591822931598
9.689999999999985 37.57835645901497
9.719999999999985 37.69073037418569
9.749999999999984 37.80303870083079
9.779999999999983 37.91527998497614
9.809999999999983 38.02745266137701
9.839999999999982 38.139555129641046
9.869999999999981 38.251585827653784
9.89999999999998 38.36354329322505
9.92999999999998 38.47542620680668
9.95999999999998 38.58723341093683
9.989999999999979 38.698963905538584
10.019999999999978 38.80446546112156
10.049999999999978 38.89358203945426
10.079999999999977 38.9569163749227
10.109999999999976 38.987970088212904
10.139999999999976 38.984130411446934
10.169999999999975 38.94692066299214
10.199999999999974 38.881685024478
10.229999999999974 38.796817444275995
10.259999999999973 38.70265551911657
10.289999999999973 38.610184280849836
10.319999999999972 38.52970967547475
10.349999999999971 38.46965929776477
10.37999999999997 38.43564780927676
10.40999999999997 38.429909210072346
10.43999999999997 38.4511523977204
10.469999999999969 38.494845542804974
10.499999999999968 38.55388416210839
10.529999999999967 38.61955265922436
10.559999999999967 38.68265461253944
10.589999999999966 38.734667566894
10.619999999999965 38.76877674637718
10.649999999999965 38.78065980168476
10.679999999999964 38.7689296052105
10.709999999999964 38.73518937279742
10.739999999999963 38.68370700239664
10.769999999999962 38.62076552449466
10.799999999999962 38.5537867030893
10.829999999999961 38.490349823294636
10.85999999999996 38.437235168726154
10.88999999999996 38.39961188131984
10.919999999999959 38.380465556558356
10.949999999999958 38.38032617226015
10.979999999999958 38.39731666560272
11.009999999999957 38.427501663632874
11.039999999999957 38.46547926128835
11.069999999999956 38.50513046948374
11.099999999999955 38.540424291658276
11.129999999999955 38.56617321770679
11.159999999999954 38.57864459447
11.189999999999953 38.57595614495717
11.219999999999953 38.55821547177892
11.249999999999952 38.527398977501285
11.279999999999951 38.4870000368768
11.30999999999995 38.44150467506456
11.33999999999995 38.395771869839045
11.36999999999995 38.35440302117635
11.399999999999949 38.32118109083413
11.429999999999948 38.29864586260337
11.459999999999948 38.28785037668339
11.489999999999947 38.28831806997923
11.519999999999946 38.298193892134435
11.549999999999946 38.31455886399671
11.579999999999945 38.33385889393417
11.609999999999944 38.35238715675496
11.639999999999944 38.366756067918374
11.669999999999943 38.37429989317029
11.699999999999942 38.373361353528345
11.729999999999942 38.36343323758969
11.759999999999941 38.34514642025416
11.78999999999994 38.3201159197085
11.81999999999994 38.290673994165154
11.84999999999994 38.25953166881799
11.879999999999939 38.229416229823585
11.909999999999938 38.2027318311316
11.939999999999937 38.181284027016744
11.969999999999937 38.16609806552318
11.999999999999936 38.15734692598886
12.029999999999935 38.15439027567355
12.059999999999935 38.155911646693795
12.089999999999934 38.16012981015084
12.119999999999933 38.16505275992192
12.149999999999933 38.168739600977986
12.179999999999932 38.169537072381566
12.209999999999932 38.16626296509378
12.239999999999931 38.15831736388914
12.26999999999993 38.14571312156382
12.29999999999993 38.12902780005627
12.329999999999929 38.10928904820177
12.359999999999928 38.08781285421411
12.389999999999928 38.06601852501139
12.419999999999927 38.045245287497735
12.449999999999926 38.026593230185895
12.479999999999926 38.01080645450691
12.509999999999925 37.99820961591493
12.539999999999925 37.98870150256293
12.569999999999924 37.98180190993927
12.599999999999923 37.97674173996467
12.629999999999923 37.97258166833232
12.659999999999922 37.9683423251936
12.689999999999921 37.96312885005491
12.71999999999992 37.95623475045153
12.74999999999992 37.947213795215106
12.77999999999992 37.93591359122255
12.809999999999919 37.92246981735727
12.839999999999918 37.9072651154736
12.869999999999918 37.890860738695366
12.899999999999917 37.87391179567453
12.929999999999916 37.857078068786905
12.959999999999916 37.84094191693537
12.989999999999915 37.82594290246968
13.019999999999914 37.81233586210371
13.049999999999914 37.80017563107653
13.079999999999913 37.789328021659664
13.109999999999912 37.77950340709363
13.139999999999912 37.77030674733645
13.169999999999911 37.76129636574087
13.19999999999991 37.75204335263458
13.22999999999991 37.74218409565054
13.25999999999991 37.73145995230137
13.289999999999909 37.71974022127978
13.319999999999908 37.707027009477024
13.349999999999907 37.69344299822244
13.379999999999907 37.679205181104784
13.409999999999906 37.66458914362124
13.439999999999905 37.649889239431594
13.469999999999905 37.63538005620232
13.499999999999904 37.62128391462433
13.529999999999903 37.60774795278565
13.559999999999903 37.594832814227665
13.589999999999902 37.58251330883483
13.619999999999902 37.5706898658559
13.6499999999999 37.55920833934875
13.6799999999999 37.54788488703681
13.7099999999999 37.53653229706674
13.739999999999899 37.52498428304825
13.769999999999898 37.51311484254697
13.799999999999898 37.500850667929164
13.829999999999897 37.48817566994208
13.859999999999896 37.47512776558433
13.889999999999896 37.46178905906416
13.919999999999895 37.44827128689706
13.949999999999894 37.43469883306625
13.979999999999894 37.421191720382836
14.009999999999893 37.40785076734577
14.039999999999893 37.39474662018045
14.069999999999892 37.381913711394574
14.099999999999891 37.369349467279555
14.12999999999989 37.357018380404554
14.15999999999989 37.3448599688734
14.18999999999989 37.3327992322837
14.219999999999889 37.32075801708189
14.249999999999888 37.30866572863281
14.279999999999887 37.296468055744874
14.309999999999887 37.28413275487637
14.339999999999886 37.271652009638174
14.369999999999886 37.2590413690397
14.399999999999885 37.24633571466303
14.429999999999884 37.233583055019714
14.459999999999884 37.22083715703635
14.489999999999883 37.20815008784515
14.519999999999882 37.19556565667943
14.549999999999882 37.18311454001542
14.579999999999881 37.17081158169884
14.60999999999988 37.15865543203537
14.63999999999988 37.146630368719705
14.66999999999988 37.13470986884155
14.699999999999878 37.122861307051764
14.729999999999878 37.111051059819054
14.759999999999877 37.09924930401541
14.789999999999877 37.0874338989372
14.819999999999876 37.07559291308005
14.849999999999875 37.06372557346605
14.879999999999875 37.05184164307568
14.909999999999874 37.039959439302
14.939999999999873 37.028102868069794
14.969999999999873 37.016297947918396
14.999999999999872 37.00456932930399
15.029999999999871 36.99293727372084
15.05999999999987 36.98141545765331
15.08999999999987 36.970009829791124
15.11999999999987 36.958718590895614
15.149999999999869 36.94753321145363
15.179999999999868 36.93644027067273
15.209999999999868 36.92542380929058
15.239999999999867 36.91446784469684
15.269999999999866 36.903558701878524
15.299999999999866 36.892686864107674
15.329999999999865 36.88184813384184
15.359999999999864 36.87104400048523
15.389999999999864 36.860281223834384
15.419999999999863 36.84957074566136
15.449999999999863 36.838926120299305
15.479999999999862 36.82836170584872
15.509999999999861 36.81789087226443
15.53999999999986 36.80752446188283
15.56999999999986 36.79726968660623
15.59999999999986 36.78712957826337
15.629999999999859 36.77710302658689
15.659999999999858 36.767185359017226
15.689999999999857 36.75736934934735
15.719999999999857 36.747646493327125
15.749999999999856 36.738008366137386
15.779999999999855 36.728447877812975
15.809999999999855 36.71896026813548
15.839999999999854 36.709543728886274
15.869999999999854 36.70019959802503
15.899999999999853 36.690932130573714
15.929999999999852 36.68174790274229
15.959999999999852 36.672654952297975
15.989999999999851 36.66366178481116
16.01999999999985 36.65477638208542
16.04999999999985 36.64600533953206
16.079999999999853 36.6373532347553
16.109999999999854 36.62882229330834
16.139999999999855 36.620412374867904
16.169999999999856 36.61212126044265
16.199999999999857 36.60394518449888
16.22999999999986 36.59587952811015
16.25999999999986 36.58791957222721
16.28999999999986 36.58006121030461
16.31999999999986 36.572301531369334
16.349999999999863 36.564639207131826
16.379999999999864 36.55707464701924
