# Results for "element" with Id # 2879432 for search config "initial" at position: x0: -500; y0: 0; z0: 116.379310345
# time VELOCITY_X
0.03 0.007020356181176597
0.06 0.029381063395843225
0.09 0.07436520340369097
0.12 0.1471121477943644
0.15 0.2500837902749247
0.18 0.38290659577976005
0.21 0.5425131776008768
0.24 0.7235331740761751
0.27 0.9188795232853633
0.30000000000000004 1.1204666065193054
0.33000000000000007 1.3199893387552852
0.3600000000000001 1.5096900817677394
0.3900000000000001 1.6830441027011285
0.42000000000000015 1.8353041014390148
0.4500000000000002 1.9638592880382875
0.4800000000000002 2.0683832014821286
0.5100000000000002 2.150765111332232
0.5400000000000003 2.2148403526655462
0.5700000000000003 2.2659532373004287
0.6000000000000003 2.3104004725587717
0.6300000000000003 2.354812003336121
0.6600000000000004 2.4055292434064377
0.6900000000000004 2.46803785265364
0.7200000000000004 2.546504215917507
0.7500000000000004 2.643452753247166
0.7800000000000005 2.759606587896896
0.8100000000000005 2.8938984260437985
0.8400000000000005 3.0436431755375053
0.8700000000000006 3.2048500534692828
0.9000000000000006 3.3726406592845355
0.9300000000000006 3.541731445121227
0.9600000000000006 3.706934711553295
0.9900000000000007 3.863631977867719
1.0200000000000007 4.008177366174664
1.0500000000000007 4.138196204545122
1.0800000000000007 4.252754745214534
1.1100000000000008 4.352389694279478
1.1400000000000008 4.438999872222766
1.1700000000000008 4.515615355796497
1.2000000000000008 4.586070539830661
1.2300000000000009 4.654615616515142
1.260000000000001 4.725505293299496
1.290000000000001 4.802603955139705
1.320000000000001 4.8890431184147864
1.350000000000001 4.986960534808174
1.380000000000001 5.097341503485964
1.410000000000001 5.219972788032275
1.440000000000001 5.353508961797429
1.470000000000001 5.495640909649646
1.500000000000001 5.643347387868517
1.5300000000000011 5.79320364581335
1.5600000000000012 5.941716683598075
1.5900000000000012 6.085655098499001
1.6200000000000012 6.2223428138651
1.6500000000000012 6.349890175164881
1.6800000000000013 6.46734255062702
1.7100000000000013 6.57473503300107
1.7400000000000013 6.673051238725022
1.7700000000000014 6.7640935570203
1.8000000000000014 6.850280533799053
1.8300000000000014 6.934393551637231
1.8600000000000014 7.019298973039747
1.8900000000000015 7.10767318709246
1.9200000000000015 7.20175653850805
1.9500000000000015 7.303158257504204
1.9800000000000015 7.412728758324258
2.0100000000000016 7.5305086900210005
2.0400000000000014 7.655756598569213
2.070000000000001 7.787049678672254
2.100000000000001 7.922445486362413
2.130000000000001 8.05968718343368
2.1600000000000006 8.196431336672559
2.1900000000000004 8.330475766079818
2.22 8.45996557981304
2.25 8.583558256673488
2.28 8.700533174739316
2.3099999999999996 8.810836863841315
2.3399999999999994 8.915061857927656
2.369999999999999 9.014363642783167
2.399999999999999 9.1103261385743
2.429999999999999 9.204790833603548
2.4599999999999986 9.299667654104473
2.4899999999999984 9.396746712845365
2.5199999999999982 9.497529200181487
2.549999999999998 9.603093076206264
2.579999999999998 9.71400522703103
2.6099999999999977 9.830286813100384
2.6399999999999975 9.951433163769874
2.6699999999999973 10.076484267133202
2.699999999999997 10.20413714887949
2.729999999999997 10.332887651016977
2.7599999999999967 10.461186645332917
2.7899999999999965 10.587594755317184
2.8199999999999963 10.71092030153062
2.849999999999996 10.830327332846839
2.879999999999996 10.945404028736503
2.9099999999999957 11.056186076678514
2.9399999999999955 11.16313437150724
2.9699999999999953 11.267071039274155
2.999999999999995 11.369081867229605
3.029999999999995 11.470396313446154
3.0599999999999947 11.57225809440364
3.0899999999999945 11.675799773202801
3.1199999999999943 11.781933815083438
3.149999999999994 11.891270408141313
3.179999999999994 12.004069233970224
3.2099999999999937 12.120228667974494
3.2399999999999936 12.239311981529406
3.2699999999999934 12.360606398489159
3.299999999999993 12.483207687484084
3.329999999999993 12.606120649376125
3.3599999999999928 12.72836459242065
3.3899999999999926 12.849072782551737
3.4199999999999924 12.96757589198859
3.449999999999992 13.083461506675475
3.479999999999992 13.196604551585354
3.509999999999992 13.307166728345173
3.5399999999999916 13.415566372479864
3.5699999999999914 13.52242316769158
3.599999999999991 13.628484588215668
3.629999999999991 13.734542544878707
3.659999999999991 13.841349351939204
3.6899999999999906 13.949541787274352
3.7199999999999904 14.05958077325511
3.7499999999999902 14.171712233403479
3.77999999999999 14.285952217799482
3.80999999999999 14.402096717274143
3.8399999999999896 14.519753986753054
3.8699999999999894 14.638394938917678
3.8999999999999893 14.757415471751449
3.929999999999989 14.8762036115432
3.959999999999989 14.994204165268531
3.9899999999999887 15.110974171602336
4.019999999999989 15.226223725161441
4.049999999999989 15.33983855804596
4.079999999999989 15.451882879743161
4.10999999999999 15.562583157814123
4.13999999999999 15.672295527108842
4.16999999999999 15.781461134334481
4.19999999999999 15.890554800263622
4.229999999999991 16.000032825263787
4.259999999999991 16.110285556500624
4.289999999999991 16.22159953704235
4.319999999999991 16.334132781393507
4.349999999999992 16.447905131508108
4.379999999999992 16.562803928194935
4.409999999999992 16.67860357512847
4.439999999999992 16.79499615137762
4.469999999999993 16.911629184690014
4.499999999999993 17.028146126432336
4.529999999999993 17.14422500899317
4.559999999999993 17.25961120145023
4.589999999999994 17.374141036808794
4.619999999999994 17.487754250281142
4.649999999999994 17.60049449931952
4.679999999999994 17.71249857753376
4.709999999999995 17.823976136576583
4.739999999999995 17.935182667821763
4.769999999999995 18.04638907930915
4.799999999999995 18.15785138846185
4.829999999999996 18.269783837745642
4.859999999999996 18.382338177196324
4.889999999999996 18.495591022896583
4.919999999999996 18.60954020445399
4.949999999999997 18.724109972600008
4.979999999999997 18.83916397033572
5.009999999999997 18.954524078635476
5.039999999999997 19.069992709006982
5.069999999999998 19.18537587498579
5.099999999999998 19.300504443763057
5.129999999999998 19.415251325232454
5.159999999999998 19.529542938623838
5.189999999999999 19.64336403340626
5.219999999999999 19.756755736685513
5.249999999999999 19.869807463208865
5.279999999999999 19.98264397050861
5.31 20.09540930638933
5.34 20.20824963682452
5.37 20.32129694510171
5.4 20.4346553713869
5.430000000000001 20.54839155603824
5.460000000000001 20.662529814039118
5.490000000000001 20.777052373701473
5.520000000000001 20.891904327474077
5.550000000000002 21.007002433601244
5.580000000000002 21.12224652674752
5.610000000000002 21.237532079810933
5.640000000000002 21.352762421456514
5.670000000000003 21.467859247986322
5.700000000000003 21.582770349294993
5.730000000000003 21.697473855122304
5.760000000000003 21.811978749257456
5.790000000000004 21.926321841370044
5.820000000000004 22.040561777586944
5.850000000000004 22.154770971765974
5.880000000000004 22.26902651952555
5.910000000000005 22.383401203073397
5.940000000000005 22.4979556113231
5.970000000000005 22.612732203645997
6.000000000000005 22.727751866959544
6.030000000000006 22.84301319129952
6.060000000000006 22.958494360730878
6.090000000000006 23.07415726200473
6.120000000000006 23.189953183896886
6.150000000000007 23.305829337904267
6.180000000000007 23.42173538782239
6.210000000000007 23.537629230158082
6.240000000000007 23.65348140593122
6.270000000000008 23.769277726152612
6.300000000000008 23.885019929899087
6.330000000000008 24.000724436014593
6.360000000000008 24.11641946828053
6.390000000000009 24.23214100520041
6.420000000000009 24.34792811185885
6.450000000000009 24.463818245017933
6.480000000000009 24.579843085391325
6.51000000000001 24.696025349806064
6.54000000000001 24.81237688833884
6.57000000000001 24.928898199386577
6.60000000000001 25.045579319135776
6.6300000000000106 25.162401881132247
6.660000000000011 25.279342017621968
6.690000000000011 25.3963736980484
6.720000000000011 25.513472076120618
6.7500000000000115 25.63061644613036
6.780000000000012 25.747792484501584
6.810000000000012 25.864993559840283
6.840000000000012 25.982221022438377
6.8700000000000125 26.09948351221683
6.900000000000013 26.216795439002894
6.930000000000013 26.33417487846343
6.960000000000013 26.451641178069572
6.9900000000000135 26.569212582130138
7.020000000000014 26.68690416130665
7.050000000000014 26.804726274298222
7.080000000000014 26.92268370951188
7.1100000000000145 27.04077556136892
7.140000000000015 27.158995802532296
7.170000000000015 27.277334432503245
7.200000000000015 27.395779020681623
7.2300000000000155 27.51431642734359
7.260000000000016 27.632934479701866
7.290000000000016 27.75162340159721
7.320000000000016 27.870376839525687
7.3500000000000165 27.98919238805365
7.380000000000017 28.108071586407668
7.410000000000017 28.227019424721565
7.440000000000017 28.34604345597904
7.4700000000000175 28.465152651255092
7.500000000000018 28.58435615764931
7.530000000000018 28.70366211912487
7.560000000000018 28.82307670150448
7.5900000000000185 28.942603427613854
7.620000000000019 29.06224288292355
7.650000000000019 29.181992801685112
7.680000000000019 29.301848495819307
7.7100000000000195 29.421803549197406
7.74000000000002 29.541850672077793
7.77000000000002 29.66198259810762
7.80000000000002 29.78219290884541
7.8300000000000205 29.902476687957485
7.860000000000021 30.02283093517243
7.890000000000021 30.14325470490664
7.920000000000021 30.263748971374785
7.9500000000000215 30.384316255882116
7.980000000000022 30.50496007943691
8.010000000000021 30.625684321323067
8.04000000000002 30.74649257050107
8.07000000000002 30.867387551939235
8.10000000000002 30.988370694622766
8.130000000000019 31.109441885966866
8.160000000000018 31.230599430924997
8.190000000000017 31.351840207012454
8.220000000000017 31.473159982695222
8.250000000000016 31.594553847862073
8.280000000000015 31.71601669436963
8.310000000000015 31.837543682699923
8.340000000000014 31.959130636772397
8.370000000000013 32.080774321975575
8.400000000000013 32.20247257898439
8.430000000000012 32.324224306143535
8.460000000000012 32.44602930242799
8.49000000000001 32.567888000288335
8.52000000000001 32.689801129137955
8.55000000000001 32.81176935653063
8.580000000000009 32.93379295395008
8.610000000000008 33.055871527843955
8.640000000000008 33.1780038456467
8.670000000000007 33.30018777267675
8.700000000000006 33.42242032072674
8.730000000000006 33.5446977950872
8.760000000000005 33.66701601536024
8.790000000000004 33.78937057647412
8.820000000000004 33.91175711493495
8.850000000000003 34.03417154608158
8.880000000000003 34.156610244155324
8.910000000000002 34.279070145938405
8.940000000000001 34.401548769751116
8.97 34.524044152702956
9.0 34.64655471974658
9.03 34.76907910513431
9.059999999999999 34.89161595222038
9.089999999999998 35.0141637184841
9.119999999999997 35.136720510018804
9.149999999999997 35.25928396430866
9.179999999999996 35.381851193103955
9.209999999999996 35.50441878903646
9.239999999999995 35.6269828912212
9.269999999999994 35.7495392974725
9.299999999999994 35.87208360575814
9.329999999999993 35.99461136561016
9.359999999999992 36.117118219354985
9.389999999999992 36.23960001595172
9.419999999999991 36.36205288483881
9.44999999999999 36.484473263304494
9.47999999999999 36.606857876901884
9.50999999999999 36.72920367896371
9.539999999999988 36.85150775922198
9.569999999999988 36.973767235480125
9.599999999999987 37.095979141879795
9.629999999999987 37.21814032874134
9.659999999999986 37.3402473867184
9.689999999999985 37.46229660357214
9.719999999999985 37.58428395675599
9.749999999999984 37.70620514000254
9.779999999999983 37.82805561724167
9.809999999999983 37.94983069666569
9.839999999999982 38.07152561446802
9.869999999999981 38.19313561701401
9.89999999999998 38.31465603112988
9.92999999999998 38.43608231401288
9.95999999999998 38.55741007789659
9.989999999999979 38.67863508781835
10.019999999999978 38.793946831187505
10.049999999999978 38.893698762227515
10.079999999999977 38.96886494746528
10.109999999999976 39.013051116236696
10.139999999999976 39.02346389888559
10.169999999999975 39.0012226629862
10.199999999999974 38.951144629301005
10.229999999999974 38.881086133990124
10.259999999999973 38.800939089912575
10.289999999999973 38.7214111126266
10.319999999999972 38.65273907925401
10.349999999999971 38.6034905484134
10.37999999999997 38.57959371405022
10.40999999999997 38.58370643881674
10.43999999999997 38.61499261949798
10.469999999999969 38.66932483106874
10.499999999999968 38.73988130156482
10.529999999999967 38.81805813598957
10.559999999999967 38.89457965874689
10.589999999999966 38.960665495752956
10.619999999999965 39.00910647820811
10.649999999999965 39.03511425995578
10.679999999999964 39.03684074178688
10.709999999999964 39.01550883911662
10.739999999999963 38.97514912235704
10.769999999999962 38.92198932405801
10.799999999999962 38.86358787992139
10.829999999999961 38.80783246061743
10.85999999999996 38.761936668936876
10.88999999999996 38.731562182152835
10.919999999999959 38.72017189561506
10.949999999999958 38.728685882182354
10.979999999999958 38.75547109765379
11.009999999999957 38.796652875456004
11.039999999999957 38.846696405455404
11.069999999999956 38.89917415789745
11.099999999999955 38.94761440968059
11.129999999999955 38.986319113763024
11.159999999999954 39.01104728306724
11.189999999999953 39.01948154296189
11.219999999999953 39.011427391389404
11.249999999999952 38.988732199782255
11.279999999999951 38.95494851304503
11.30999999999995 38.91479843116364
11.33999999999995 38.87351856291736
11.36999999999995 38.83617575858275
11.399999999999949 38.80704209820506
11.429999999999948 38.78910461752241
11.459999999999948 38.783763647787666
11.489999999999947 38.790746762197394
11.519999999999946 38.80823680003959
11.549999999999946 38.833185809938
11.579999999999945 38.86176507565461
11.609999999999944 38.88988703177946
11.639999999999944 38.91372929863557
11.669999999999943 38.93019459511261
11.699999999999942 38.937252157467995
11.729999999999942 38.934124556549
11.759999999999941 38.921305761626
11.78999999999994 38.90041880059023
11.81999999999994 38.87394134613953
11.84999999999994 38.84484251076126
11.879999999999939 38.81618243805056
11.909999999999938 38.79072737330171
11.939999999999937 38.77062722827079
11.969999999999937 38.75719149991628
11.999999999999936 38.75078462435512
12.029999999999935 38.75084553084569
12.059999999999935 38.7560204256533
12.089999999999934 38.764384542535915
12.119999999999933 38.77371919825685
12.149999999999933 38.781805891709155
12.179999999999932 38.78669965479725
12.209999999999932 38.7869490473978
12.239999999999931 38.78173914932285
12.26999999999993 38.77094524401715
12.29999999999993 38.75509701059665
12.329999999999929 38.73526430921845
12.359999999999928 38.71288466578228
12.389999999999928 38.68955834297794
12.419999999999927 38.66683894290636
12.449999999999926 38.646045869756136
12.479999999999926 38.62812019976608
12.509999999999925 38.613538420770304
12.539999999999925 38.60229020072817
12.569999999999924 38.59391792793087
12.599999999999923 38.5876082995971
12.629999999999923 38.5823205455799
12.659999999999922 38.57693253617756
12.689999999999921 38.57038526692402
12.71999999999992 38.56180794338539
12.74999999999992 38.55060970853363
12.77999999999992 38.53652932242789
12.809999999999919 38.519640046474
12.839999999999918 38.500312802822364
12.869999999999918 38.47914563031625
12.899999999999917 38.45687099878832
12.929999999999916 38.43425433679925
12.959999999999916 38.411997094823974
12.989999999999915 38.39065597448369
13.019999999999914 38.37058695596719
13.049999999999914 38.35191893788268
13.079999999999913 38.33455771737565
13.109999999999912 38.318217208585786
13.139999999999912 38.302471680573355
13.169999999999911 38.286820717742
13.19999999999991 38.270757735469196
13.22999999999991 38.25383322963162
13.25999999999991 38.235705357245386
13.289999999999909 38.21617267026641
13.319999999999908 38.195186505250696
13.349999999999907 38.17284329357557
13.379999999999907 38.149359545641666
13.409999999999906 38.12503418555131
13.439999999999905 38.10020407591901
13.469999999999905 38.075198901334666
13.499999999999904 38.05030110158368
13.529999999999903 38.02571539662272
13.559999999999903 38.00155083108571
13.589999999999902 37.97781643334797
13.619999999999902 37.95442977611101
13.6499999999999 37.93123617543723
13.6799999999999 37.90803513450779
13.7099999999999 37.88461003984288
13.739999999999899 37.86075707686054
13.769999999999898 37.836309800447026
13.799999999999898 37.81115667384702
13.829999999999897 37.78525002704965
13.859999999999896 37.758606110682315
13.889999999999896 37.73129708182194
13.919999999999895 37.70343670073883
13.949999999999894 37.6751621478616
13.979999999999894 37.646614636761385
14.009999999999893 37.61792140210039
14.039999999999893 37.58918122218498
14.069999999999892 37.56045497764986
14.099999999999891 37.5317619677747
14.12999999999989 37.50308190229902
14.15999999999989 37.47436176723712
14.18999999999989 37.44552621841761
14.219999999999889 37.41648982904983
14.249999999999888 37.38716943426591
14.279999999999887 37.35749497363778
14.309999999999887 37.32741758046968
14.339999999999886 37.29691413888413
14.369999999999886 37.265988057628924
14.399999999999885 37.23466652390686
14.429999999999884 37.20299493235656
14.459999999999884 37.17102948419066
14.489999999999883 37.13882909786667
14.519999999999882 37.10644775534938
14.549999999999882 37.07392824442481
14.579999999999881 37.04129798340579
14.60999999999988 37.00856727941494
14.63999999999988 36.975730020973145
14.66999999999988 36.94276648633204
14.699999999999878 36.90964769895357
14.729999999999878 36.87634060922306
14.759999999999877 36.842813338502644
14.789999999999877 36.809039782993814
14.819999999999876 36.77500302171879
14.849999999999875 36.740697182349216
14.879999999999875 36.70612765474448
14.909999999999874 36.67130977129213
14.939999999999873 36.636266265361655
14.969999999999873 36.60102395447118
14.999999999999872 36.565610163163996
15.029999999999871 36.530049389816746
15.05999999999987 36.49436064396124
15.08999999999987 36.45855575811627
15.11999999999987 36.42263881926827
15.149999999999869 36.386606703594495
15.179999999999868 36.35045055060033
15.209999999999868 36.314157901247675
15.239999999999867 36.27771515852314
15.269999999999866 36.241110013672724
15.299999999999866 36.20433351306053
15.329999999999865 36.16738151491894
15.359999999999864 36.130255385355454
15.389999999999864 36.09296189596292
15.419999999999863 36.05551239673834
15.449999999999863 36.01792142625291
15.479999999999862 35.980204986685614
15.509999999999861 35.94237874082523
15.53999999999986 35.9044563791516
15.56999999999986 35.86644836281622
15.59999999999986 35.828361187866776
15.629999999999859 35.790197234513975
15.659999999999858 35.75195518090789
15.689999999999857 35.713630889065186
15.719999999999857 35.67521861275003
15.749999999999856 35.636712346337205
15.779999999999855 35.59810712396828
15.809999999999855 35.55940009743487
15.839999999999854 35.520591264393495
15.869999999999854 35.481683774094314
15.899999999999853 35.442683799279195
15.929999999999852 35.40360001555781
15.959999999999852 35.364442783349716
15.989999999999851 35.325223159942496
16.01999999999985 35.285951879536185
16.04999999999985 35.24663843479482
16.079999999999853 35.20729037293151
16.109999999999854 35.167912883905906
16.139999999999855 35.12850871592844
16.169999999999856 35.08907840886583
16.199999999999857 35.04962079714133
16.22999999999986 35.010133701386565
16.25999999999986 34.97061470595979
16.28999999999986 34.931061916671766
16.31999999999986 34.891474601820995
16.349999999999863 34.85185364011309
16.379999999999864 34.81220173058891
