# Results for "element" with Id # 2873772 for search config "initial" at position: x0: -500; y0: 0; z0: 245.689655172
# time VELOCITY_X
0.03 0.00717120877411312
0.06 0.03005592545431813
0.09 0.07615759802642227
0.12 0.15078450582335395
0.15 0.25649314255533745
0.18 0.3929192746300164
0.21 0.5569182851689968
0.24 0.7429640811365025
0.27 0.9437520893831469
0.30000000000000004 1.1509414078205542
0.33000000000000007 1.3559627099506906
0.3600000000000001 1.5508153569986292
0.3900000000000001 1.7287805479046754
0.42000000000000015 1.8849873288801586
0.4500000000000002 2.0167840927304734
0.4800000000000002 2.1238882753631807
0.5100000000000002 2.2083091922657387
0.5400000000000003 2.2740609513290946
0.5700000000000003 2.326701785322706
0.6000000000000003 2.372751021097925
0.6300000000000003 2.4190439325830293
0.6600000000000004 2.4720873774302645
0.6900000000000004 2.5374756220643757
0.7200000000000004 2.6194169590942726
0.7500000000000004 2.720408889894707
0.7800000000000005 2.841084288169333
0.8100000000000005 2.9802345966312505
0.8400000000000005 3.1350001526328812
0.8700000000000006 3.3012034154483088
0.9000000000000006 3.4737891916037333
0.9300000000000006 3.647327728596277
0.9600000000000006 3.8165323562936093
0.9900000000000007 3.976743524096762
1.0200000000000007 4.1243356076988
1.0500000000000007 4.2570113702990575
1.0800000000000007 4.373960648280428
1.1100000000000008 4.475873521324514
1.1400000000000008 4.564812491941003
1.1700000000000008 4.643961536425474
1.2000000000000008 4.717280926181911
1.2300000000000009 4.789104408885951
1.260000000000001 4.863719068749076
1.290000000000001 4.944967846993499
1.320000000000001 5.03591061094151
1.350000000000001 5.138572490907021
1.380000000000001 5.2537988440708885
1.410000000000001 5.381225630821871
1.440000000000001 5.5193631723685534
1.470000000000001 5.665781098170182
1.500000000000001 5.817373584264451
1.5300000000000011 5.9706773876227865
1.5600000000000012 6.122211215301737
1.5900000000000012 6.268803939336056
1.6200000000000012 6.407881167354552
1.6500000000000012 6.537684514491488
1.6800000000000013 6.657405125453644
1.7100000000000013 6.76722182839614
1.7400000000000013 6.868243848489172
1.7700000000000014 6.962367266319545
1.8000000000000014 7.052062416753033
1.8300000000000014 7.140115408089118
1.8600000000000014 7.229350365740933
1.8900000000000015 7.322359677060775
1.9200000000000015 7.421267513542201
1.9500000000000015 7.527547614028033
1.9800000000000015 7.641910267867663
2.0100000000000016 7.764266312011146
2.0400000000000014 7.893768443593928
2.070000000000001 8.028922926156199
2.100000000000001 8.167758447950936
2.130000000000001 8.30803398825184
2.1600000000000006 8.447464469999492
2.1900000000000004 8.583941956762501
2.22 8.715731278966658
2.25 8.841622106340333
2.28 8.961024302093596
2.3099999999999996 9.073999389493146
2.3399999999999994 9.181227495523968
2.369999999999999 9.28391552143135
2.399999999999999 9.383657862873605
2.429999999999999 9.482265219640453
2.4599999999999986 9.581579515714122
2.4899999999999984 9.68329354256008
2.5199999999999982 9.788792671117939
2.549999999999998 9.8990330918259
2.579999999999998 10.014466896395007
2.6099999999999977 10.135019369110717
2.6399999999999975 10.260118607496278
2.6699999999999973 10.38877253496502
2.699999999999997 10.519683959572886
2.729999999999997 10.651390962137391
2.7599999999999967 10.78241785666259
2.7899999999999965 10.911421420891093
2.8199999999999963 11.037318081332904
2.849999999999996 11.15938012256999
2.879999999999996 11.27729251328755
2.9099999999999957 11.391166210982632
2.9399999999999955 11.5015083578003
2.9699999999999953 11.60915412632096
2.999999999999995 11.715168665928413
3.029999999999995 11.820730275421507
3.0599999999999947 11.927007354069794
3.0899999999999945 12.035041772163016
3.1199999999999943 12.145650108269283
3.149999999999994 12.259351911532379
3.179999999999994 12.376331040427175
3.2099999999999937 12.496432551015548
3.2399999999999936 12.61919393044436
3.2699999999999934 12.743906058838721
3.299999999999993 12.869696461967521
3.329999999999993 12.995625450163898
3.3599999999999928 13.120784795218903
3.3899999999999926 13.244388746222057
3.4199999999999924 13.365848380186295
3.449999999999992 13.484822367565833
3.479999999999992 13.601239962424899
3.509999999999992 13.71529508830987
3.5399999999999916 13.827413447023194
3.5699999999999914 13.93819730060004
3.599999999999991 14.048354690510497
3.629999999999991 14.158621166436062
3.659999999999991 14.269682498649292
3.6899999999999906 14.38210634491523
3.7199999999999904 14.496289533429941
3.7499999999999902 14.612425684369697
3.77999999999999 14.730495553523514
3.80999999999999 14.85028000411328
3.8399999999999896 14.971393157686796
3.8699999999999894 15.093331281002163
3.8999999999999893 15.215531524659859
3.929999999999989 15.337433867787727
3.959999999999989 15.458539596201938
3.9899999999999887 15.578460322102053
4.019999999999989 15.696952840930141
4.049999999999989 15.813936851925424
4.079999999999989 15.929494538130506
4.10999999999999 16.04385298498783
4.13999999999999 16.157352198382785
4.16999999999999 16.270402879359125
4.19999999999999 16.383438991682123
4.229999999999991 16.496870452279648
4.259999999999991 16.611040980121526
4.289999999999991 16.72619532220492
4.319999999999991 16.84245884854482
4.349999999999992 16.959831025634116
4.379999999999992 17.078192711078295
4.409999999999992 17.19732573248585
4.439999999999992 17.316941975476375
4.469999999999993 17.436718329698436
4.499999999999993 17.556333404767884
4.529999999999993 17.67550195550922
4.559999999999993 17.79400342348336
4.589999999999994 17.911701835592144
4.619999999999994 18.028555391674505
4.649999999999994 18.1446152884635
4.679999999999994 18.260014526782385
4.709999999999995 18.37494850049217
4.739999999999995 18.489649961740607
4.769999999999995 18.604361423518405
4.799999999999995 18.719308164760594
4.829999999999996 18.83467475305458
4.859999999999996 18.950587445357865
4.889999999999996 19.067104043582066
4.919999999999996 19.18421187133564
4.949999999999997 19.301833605386346
4.979999999999997 19.419839846371985
5.009999999999997 19.538066635829875
5.039999999999997 19.656335686491186
5.069999999999998 19.774474924746613
5.099999999999998 19.892337052075618
5.129999999999998 20.00981419047811
5.159999999999998 20.12684722804244
5.189999999999999 20.24342915560792
5.219999999999999 20.359602398728537
5.249999999999999 20.4754508199474
5.279999999999999 20.591087620571564
5.31 20.706640754178185
5.34 20.82223764280198
5.37 20.937990953012285
5.4 21.053986959227696
5.430000000000001 21.170277634944366
5.460000000000001 21.286877120005997
5.490000000000001 21.403762678335713
5.520000000000001 21.52087974607084
5.550000000000002 21.638150233172464
5.580000000000002 21.755482926449798
5.610000000000002 21.872784677569527
5.640000000000002 21.98997105494201
5.670000000000003 22.106975284148753
5.700000000000003 22.223754572705815
5.730000000000003 22.3402932720756
5.760000000000003 22.45660272714794
5.790000000000004 22.57271805235716
5.820000000000004 22.688692409840765
5.850000000000004 22.804589613945335
5.880000000000004 22.920476024405993
5.910000000000005 23.036412708338077
5.940000000000005 23.152448755249033
5.970000000000005 23.268616437317363
6.000000000000005 23.384928647967236
6.030000000000006 23.501378758782906
6.060000000000006 23.617942745429193
6.090000000000006 23.73458318031376
6.120000000000006 23.851254500017287
6.150000000000007 23.967908846791957
6.180000000000007 24.08450176381788
6.210000000000007 24.20099708983057
6.240000000000007 24.317370536622715
6.270000000000008 24.433611622242523
6.300000000000008 24.549723847593796
6.330000000000008 24.665723218012698
6.360000000000008 24.781635399164752
6.390000000000009 24.89749193773809
6.420000000000009 25.013326057989055
6.450000000000009 25.129168560115648
6.480000000000009 25.24504429869251
6.51000000000001 25.36096961756622
6.54000000000001 25.47695097782397
6.57000000000001 25.592984858175484
6.60000000000001 25.709058850553973
6.6300000000000106 25.825153736032174
6.660000000000011 25.94124622435099
6.690000000000011 26.05731198325875
6.720000000000011 26.173328574746748
6.7500000000000115 26.28927795286497
6.780000000000012 26.40514825455901
6.810000000000012 26.5209347178564
6.840000000000012 26.63663967864811
6.8700000000000125 26.752271711352453
6.900000000000013 26.867844077331483
6.930000000000013 26.983372717823407
6.960000000000013 27.098874065694933
6.9900000000000135 27.21436295363605
7.020000000000014 27.329850865979004
7.050000000000014 27.445344722190892
7.080000000000014 27.560846302964187
7.1100000000000145 27.67635234384432
7.140000000000015 27.791855238105853
7.170000000000015 27.907344220891556
7.200000000000015 28.022806856221607
7.2300000000000155 28.138230624048095
7.260000000000016 28.25360440610384
7.290000000000016 28.368919695571755
7.320000000000016 28.484171401239564
7.3500000000000165 28.599358175302932
7.380000000000017 28.71448225757153
7.410000000000017 28.829548888686695
7.440000000000017 28.944565394416912
7.4700000000000175 29.05954007659286
7.500000000000018 29.17448106080483
7.530000000000018 29.28939524621525
7.560000000000018 29.40428748040787
7.5900000000000185 29.519160046021277
7.620000000000019 29.63401250158795
7.650000000000019 29.74884187215473
7.680000000000019 29.863643142308387
7.7100000000000195 29.978409970061044
7.74000000000002 30.093135517961198
7.77000000000002 30.207813290288623
7.80000000000002 30.322437871722908
7.8300000000000205 30.437005482193214
7.860000000000021 30.55151429110466
7.890000000000021 30.665964467864416
7.920000000000021 30.780357980077863
7.9500000000000215 30.894698181326227
7.980000000000022 31.00898925401555
8.010000000000021 31.12323558642562
8.04000000000002 31.237441166097604
8.07000000000002 31.351609064354943
8.10000000000002 31.465741070216627
8.130000000000019 31.57983750961444
8.160000000000018 31.6938972603031
8.190000000000017 31.807917947639485
8.220000000000017 31.9218962849262
8.250000000000016 32.03582850610075
8.280000000000015 32.14971083036279
8.310000000000015 32.263539898396864
8.340000000000014 32.37731312736539
8.370000000000013 32.49102894554081
8.400000000000013 32.60468688495453
8.430000000000012 32.71828752978363
8.460000000000012 32.83183233620286
8.49000000000001 32.94532335481924
8.52000000000001 33.058762896646144
8.55000000000001 33.17215318814097
8.580000000000009 33.285496059308436
8.610000000000008 33.398792701745045
8.640000000000008 33.512043522359114
8.670000000000007 33.625248104896066
8.700000000000006 33.738405276989226
8.730000000000006 33.85151326741976
8.760000000000005 33.96456992809123
8.790000000000004 34.07757298794085
8.820000000000004 34.19052030516259
8.850000000000003 34.30341008595792
8.880000000000003 34.416241044395285
8.910000000000002 34.52901248698607
8.940000000000001 34.64172431620142
8.97 34.754376957628565
9.0 34.86697122506155
9.03 34.97950814424686
9.059999999999999 35.0919887603016
9.089999999999998 35.20441395409382
9.119999999999997 35.316784289956
9.149999999999997 35.42909991157763
9.179999999999996 35.54136049594661
9.209999999999996 35.653565267379356
9.239999999999995 35.76571306592981
9.269999999999994 35.87780245768617
9.299999999999994 35.9898318699911
9.329999999999993 36.10179973318144
9.359999999999992 36.213704610199756
9.389999999999992 36.32554529847657
9.419999999999991 36.43732089303286
9.44999999999999 36.54903080551469
9.47999999999999 36.66067473964695
9.50999999999999 36.77225262939637
9.539999999999988 36.883764549975325
9.569999999999988 36.995210614896926
9.599999999999987 37.10659087214176
9.629999999999987 37.2179052128794
9.659999999999986 37.32915330391647
9.689999999999985 37.440334550970185
9.719999999999985 37.55144809512865
9.749999999999984 37.66249284037638
9.779999999999983 37.77346750582543
9.809999999999983 37.88437069523364
9.839999999999982 37.99520097382549
9.869999999999981 38.10595694217473
9.89999999999998 38.216637297982174
9.92999999999998 38.32724087854805
9.95999999999998 38.43776667964856
9.989999999999979 38.54821384997975
10.019999999999978 38.652460706722344
10.049999999999978 38.74037009601195
10.079999999999977 38.80255128136842
10.109999999999976 38.832505983548735
10.139999999999976 38.82761027611033
10.169999999999975 38.78936764153338
10.199999999999974 38.7230996782969
10.229999999999974 38.637181479480105
10.259999999999973 38.54194064194667
10.289999999999973 38.44836373756774
10.319999999999972 38.36676964224489
10.349999999999971 38.30560750989514
10.37999999999997 38.27051752631891
10.40999999999997 38.26375762564545
10.43999999999997 38.28405372109131
10.469999999999969 38.3268800093266
10.499999999999968 38.385125005281594
10.529999999999967 38.45005347322554
10.559999999999967 38.51243948869771
10.589999999999966 38.56372590669424
10.619999999999965 38.597063826368746
10.649999999999965 38.608103141134414
10.679999999999964 38.595440155887346
10.709999999999964 38.56067570095098
10.739999999999963 38.50809011608655
10.769999999999962 38.44399189584608
10.799999999999962 38.375837348110345
10.829999999999961 38.31124395947696
10.85999999999996 38.257027853630454
10.88999999999996 38.21838599141082
10.919999999999959 38.19831934785559
10.949999999999958 38.1973583409646
10.979999999999958 38.2136112018005
11.009999999999957 38.243114812111635
11.039999999999957 38.280430569668624
11.069999999999956 38.31939926727211
11.099999999999955 38.35395210493891
11.129999999999955 38.378871714130014
11.159999999999954 38.3904078202709
11.189999999999953 38.386675189452276
11.219999999999953 38.367793370047636
11.249999999999952 38.3357636797327
11.279999999999951 38.29411361547563
11.30999999999995 38.247367540841054
11.33999999999995 38.20042152350212
11.36999999999995 38.15790765757768
11.399999999999949 38.12362908815954
11.429999999999948 38.100132729782594
11.459999999999948 38.08846503499142
11.489999999999947 38.08813037763779
11.519999999999946 38.09724508886212
11.549999999999946 38.11285615660709
11.579999999999945 38.13137479368967
11.609999999999944 38.149063504079464
11.639999999999944 38.162512037664136
11.669999999999943 38.16904275352947
11.699999999999942 38.16699842400509
11.729999999999942 38.155883393574484
11.759999999999941 38.13634962613003
11.78999999999994 38.11003960746258
11.81999999999994 38.079315581894
11.84999999999994 38.04691705974576
11.879999999999939 38.015594670045544
11.909999999999938 37.987767963114045
11.939999999999937 37.965248300916315
11.969999999999937 37.94905682727278
11.999999999999936 37.93935347903198
12.029999999999935 37.935478023790395
12.059999999999935 37.936090101311386
12.089999999999934 37.93938383519754
12.119999999999933 37.94334498853088
12.149999999999933 37.94601555054133
12.179999999999932 37.9457321600607
12.209999999999932 37.94131042385485
12.239999999999931 37.93215599940691
12.26999999999993 37.91829393209634
12.29999999999993 37.9003186848852
12.329999999999929 37.87927712063162
12.359999999999928 37.85650420880957
12.389999999999928 37.833435639910434
12.419999999999927 37.81142252939328
12.449999999999926 37.79157113898466
12.479999999999926 37.774625595721375
12.509999999999925 37.760904793955866
12.539999999999925 37.75029703362543
12.569999999999924 37.74230847679304
12.599999999999923 37.736155120166494
12.629999999999923 37.730883374311624
12.659999999999922 37.72550195298974
12.689999999999921 37.719107733135765
12.71999999999992 37.71099037886414
12.74999999999992 37.700704401491194
12.77999999999992 37.688102324937745
12.809999999999919 37.67332802178742
12.839999999999918 37.65677436574673
12.869999999999918 37.639013478366095
12.899999999999917 37.620710593406
12.929999999999916 37.60253368524152
12.959999999999916 37.58507050436131
12.989999999999915 37.56876274240562
13.019999999999914 37.5538640735612
13.049999999999914 37.54042525328927
13.079999999999913 37.52830579969478
13.109999999999912 37.51720849803179
13.139999999999912 37.506730435608084
13.169999999999911 37.49642274589083
13.19999999999991 37.485850822450054
13.22999999999991 37.474647415458605
13.25999999999991 37.462552575928214
13.289999999999909 37.44943659413299
13.319999999999908 37.4353045574389
13.349999999999907 37.42028359090471
13.379999999999907 37.404595934643986
13.409999999999906 37.3885225196134
13.439999999999905 37.37236248574957
13.469999999999905 37.35639411171752
13.499999999999904 37.340841954899076
13.529999999999903 37.32585378263659
13.559999999999903 37.31148931443296
13.589999999999902 37.29772112035617
13.619999999999902 37.28444645059413
13.6499999999999 37.271507499052746
13.6799999999999 37.258716759351906
13.7099999999999 37.245883788149754
13.739999999999899 37.23283984675277
13.769999999999898 37.2194574819425
13.799999999999898 37.20566301887661
13.829999999999897 37.191441028944624
13.859999999999896 37.17683094306064
13.889999999999896 37.161916971109655
13.919999999999895 37.1468132381375
13.949999999999894 37.131646484939466
13.979999999999894 37.11653877784845
14.009999999999893 37.10159244825034
14.039999999999893 37.08687899196455
14.069999999999892 37.07243298795248
14.099999999999891 37.0582513550602
14.12999999999989 37.04429754855063
14.15999999999989 37.030509696047915
14.18999999999989 37.016811256516824
14.219999999999889 37.003122587717485
14.249999999999888 36.989371834729354
14.279999999999887 36.97550378631514
14.309999999999887 36.9614857347378
14.339999999999886 36.94730985093142
14.369999999999886 36.93299208241893
14.399999999999885 36.91856803461844
14.429999999999884 36.90408664881684
14.459999999999884 36.88960270399118
14.489999999999883 36.87516923292061
14.519999999999882 36.86083085744376
14.549999999999882 36.84661883715875
14.579999999999881 36.83254832956638
14.60999999999988 36.8186180268105
14.63999999999988 36.80481200834632
14.66999999999988 36.79110337139996
14.699999999999878 36.7774590043116
14.729999999999878 36.76384477162158
14.759999999999877 36.75023038850491
14.789999999999877 36.736593364770215
14.819999999999876 36.72292157342537
14.849999999999875 36.70921421854479
14.879999999999875 36.695481208169035
14.909999999999874 36.681741148214364
14.939999999999873 36.66801833722077
14.969999999999873 36.65433924273153
14.999999999999872 36.6407289716078
15.029999999999871 36.627208205254895
15.05999999999987 36.613790969751854
15.08999999999987 36.60048347262107
15.11999999999987 36.58728407670675
15.149999999999869 36.57418432545746
15.179999999999868 36.56117080062837
15.209999999999868 36.54822750120344
15.239999999999867 36.535338387825725
15.269999999999866 36.52248974215584
15.299999999999866 36.50967204144918
15.329999999999865 36.496881136187326
15.359999999999864 36.4841186259551
15.389999999999864 36.47139144220392
15.419999999999863 36.45871075142581
15.449999999999863 36.446090371438714
15.479999999999862 36.43354494495231
15.509999999999861 36.421088129478605
15.53999999999986 36.40873104166642
15.56999999999986 36.39648114222483
15.59999999999986 36.3843416793558
15.629999999999859 36.37231172559789
15.659999999999858 36.3603867617922
15.689999999999857 36.348559694153394
15.719999999999857 36.33682214094311
15.749999999999856 36.325165801938574
15.779999999999855 36.31358372486779
15.809999999999855 36.30207130876266
15.839999999999854 36.290626931161135
15.869999999999854 36.27925214336075
15.899999999999853 36.26795143873264
15.929999999999852 36.256731651110364
15.959999999999852 36.245601087397105
15.989999999999851 36.234568525345935
16.01999999999985 36.223642213955294
16.04999999999985 36.21282900428538
16.079999999999853 36.20213371379822
16.109999999999854 36.19155879057656
16.139999999999855 36.18110430071361
16.169999999999856 36.17076821914068
16.199999999999857 36.160546967197206
16.22999999999986 36.15043611220256
16.25999999999986 36.14043112709433
16.28999999999986 36.13052810849135
16.31999999999986 36.1207243635307
16.349999999999863 36.11101879857887
16.379999999999864 36.10141207362668
