# Results for "element" with Id # 2853237 for search config "initial" at position: x0: -500; y0: 0; z0: 375
# time VELOCITY_X
0.03 0.007348688647932651
0.06 0.030814175939237572
0.09 0.07809003828812117
0.12 0.15461570378311051
0.15 0.2630060877358741
0.18 0.40287814597566435
0.21 0.570993997157281
0.24 0.7616695204714324
0.27 0.9673936513250476
0.30000000000000004 1.1795924631908465
0.33000000000000007 1.3894626735049849
0.3600000000000001 1.5887951405072527
0.3900000000000001 1.7707117759366122
0.42000000000000015 1.9302493889503523
0.4500000000000002 2.0647405408803916
0.4800000000000002 2.173962841649525
0.5100000000000002 2.260051865230547
0.5400000000000003 2.3271962765859575
0.5700000000000003 2.381154221237338
0.6000000000000003 2.4286454145272383
0.6300000000000003 2.476682359450451
0.6600000000000004 2.531906291455483
0.6900000000000004 2.5999891972953346
0.7200000000000004 2.6851536151415516
0.7500000000000004 2.7898482996750156
0.7800000000000005 2.9146017870291114
0.8100000000000005 3.0580589409669083
0.8400000000000005 3.2171890954447617
0.8700000000000006 3.3876396528789003
0.9000000000000006 3.5641970061149686
0.9300000000000006 3.741308297058554
0.9600000000000006 3.913613464125155
0.9900000000000007 4.0764376377067535
1.0200000000000007 4.226199184559884
1.0500000000000007 4.360698126572831
1.0800000000000007 4.479262310150465
1.1100000000000008 4.5827432517290525
1.1400000000000008 4.6733684578995565
1.1700000000000008 4.754470621732815
1.2000000000000008 4.830125035300309
1.2300000000000009 4.904733828906275
1.260000000000001 4.982598732585656
1.290000000000001 5.067522951936948
1.320000000000001 5.162477890888705
1.350000000000001 5.26936259562893
1.380000000000001 5.388873882675149
1.410000000000001 5.5204941582699485
1.440000000000001 5.662592924124411
1.470000000000001 5.812627802187797
1.500000000000001 5.967422395048542
1.5300000000000011 6.123492080924586
1.5600000000000012 6.277385410821435
1.5900000000000012 6.426008401158994
1.6200000000000012 6.566901709839794
1.6500000000000012 6.698446175324861
1.6800000000000013 6.81997992674432
1.7100000000000013 6.9318194235484665
1.7400000000000013 7.035186392301286
1.7700000000000014 7.132051684755258
1.8000000000000014 7.224914663549226
1.8300000000000014 7.316542116096144
1.8600000000000014 7.409693463401714
1.8900000000000015 7.506859055243234
1.9200000000000015 7.610035791558017
1.9500000000000015 7.720559608100059
1.9800000000000015 7.839008085143073
2.0100000000000016 7.96517926028083
2.0400000000000014 8.098145336793902
2.070000000000001 8.236373037713344
2.100000000000001 8.377896449708452
2.130000000000001 8.520523809577002
2.1600000000000006 8.662057164746164
2.1900000000000004 8.800503371481883
2.22 8.934256497237596
2.25 9.06223517216986
2.28 9.183963420145664
2.3099999999999996 9.29958945807405
2.3399999999999994 9.409843250868368
2.369999999999999 9.515939591556084
2.399999999999999 9.619438534112975
2.429999999999999 9.72207866331068
2.4599999999999986 9.825600633160533
2.4899999999999984 9.931578544834693
2.5199999999999982 10.041275149068632
2.549999999999998 10.155533808299948
2.579999999999998 10.274716012545195
2.6099999999999977 10.39868846195402
2.6399999999999975 10.52685878627258
2.6699999999999973 10.658254328617556
2.699999999999997 10.791634494482018
2.729999999999997 10.925624295842898
2.7599999999999967 11.05885514224412
2.7899999999999965 11.190098760813914
2.8199999999999963 11.318381350594038
2.849999999999996 11.44306753499406
2.879999999999996 11.56390709416328
2.9099999999999957 11.681041460050242
2.9399999999999955 11.794971109592025
2.9699999999999953 11.90648886151926
2.999999999999995 12.016587278949256
3.029999999999995 12.126350601833552
3.0599999999999947 12.236842699777707
3.0899999999999945 12.34900239558613
3.1199999999999943 12.463556240107552
3.149999999999994 12.580956607773228
3.179999999999994 12.701350094975577
3.2099999999999937 12.824577958048842
3.2399999999999936 12.950207058151316
3.2699999999999934 13.07758680525382
3.299999999999993 13.205925191659723
3.329999999999993 13.334375391821572
3.3599999999999928 13.462123710489621
3.3899999999999926 13.588469925630239
3.4199999999999924 13.712892236583006
3.449999999999992 13.83509094096289
3.479999999999992 13.955007403046581
3.509999999999992 14.07281756590963
3.5399999999999916 14.188901908617861
3.5699999999999914 14.30379608029424
3.599999999999991 14.41812822480454
3.629999999999991 14.532550083156043
3.659999999999991 14.647669248078891
3.6899999999999906 14.763989457506568
3.7199999999999904 14.88186464154061
3.7499999999999902 15.00147073781851
3.77999999999999 15.12279726269762
3.80999999999999 15.245658494729582
3.8399999999999896 15.369722113726606
3.8699999999999894 15.494551444268204
3.8999999999999893 15.619656235554249
3.929999999999989 15.744546273917901
3.959999999999989 15.868782112078087
3.9899999999999887 15.992017784253317
4.019999999999989 16.114031471909925
4.049999999999989 16.2347415525524
4.079999999999989 16.35420713133562
4.10999999999999 16.47261383492624
4.13999999999999 16.590247158863683
4.16999999999999 16.707456850222844
4.19999999999999 16.82461656594714
4.229999999999991 16.9420833160829
4.259999999999991 17.060160976825628
4.289999999999991 17.179071493487527
4.319999999999991 17.29893638080396
4.349999999999992 17.419769894687096
4.379999999999992 17.541483937516396
4.409999999999992 17.663903511005856
4.439999999999992 17.786790475602555
4.469999999999993 17.909872615148625
4.499999999999993 18.03287460606827
4.529999999999993 18.155547475792815
4.559999999999993 18.277693488282086
4.589999999999994 18.399184057624474
4.619999999999994 18.519969176671246
4.649999999999994 18.640077848505797
4.679999999999994 18.759610009130938
4.709999999999995 18.878721320890158
4.739999999999995 18.997602906646208
4.769999999999995 19.116458520475355
4.799999999999995 19.235481780446293
4.829999999999996 19.354835925036717
4.859999999999996 19.47463813353586
4.889999999999996 19.59494983117508
4.919999999999996 19.715773662911218
4.949999999999997 19.83705705114829
4.979999999999997 19.958701539242725
5.009999999999997 20.080576538435
5.039999999999997 20.20253569793963
5.069999999999998 20.324433938781937
5.099999999999998 20.446143238956825
5.129999999999998 20.56756551354719
5.159999999999998 20.688641356045178
5.189999999999999 20.809353942010958
5.219999999999999 20.92972797546992
5.249999999999999 21.049824115980545
5.279999999999999 21.169729798435988
5.31 21.28954770086791
5.34 21.40938329724444
5.37 21.529332941975618
5.4 21.649473779814986
5.430000000000001 21.769856487314208
5.460000000000001 21.89050146906139
5.490000000000001 22.011398704275038
5.520000000000001 22.1325110162067
5.550000000000002 22.253780166717004
5.580000000000002 22.375134899017436
5.610000000000002 22.496499889332306
5.640000000000002 22.617804533953038
5.670000000000003 22.738990587688864
5.700000000000003 22.860017865581934
5.730000000000003 22.980867492403817
5.760000000000003 23.101542498485447
5.790000000000004 23.22206587681243
5.820000000000004 23.34247649883772
5.850000000000004 23.462823504799612
5.880000000000004 23.58315991775642
5.910000000000005 23.70353626879485
5.940000000000005 23.82399496607297
5.970000000000005 23.94456600455752
6.000000000000005 24.065264417921625
6.030000000000006 24.186089644898274
6.060000000000006 24.307026748898043
6.090000000000006 24.428049218880922
6.120000000000006 24.549122914413022
6.150000000000007 24.670210614543613
6.180000000000007 24.791276596892295
6.210000000000007 24.91229070937816
6.240000000000007 25.03323149352126
6.270000000000008 25.154088059972214
6.300000000000008 25.274860584230936
6.330000000000008 25.39555946203356
6.360000000000008 25.516203319272968
6.390000000000009 25.636816193186732
6.420000000000009 25.75742427748923
6.450000000000009 25.878052648558917
6.480000000000009 25.998722363235643
6.51000000000001 26.11944824744099
6.54000000000001 26.240237590126178
6.57000000000001 26.361089834537438
6.60000000000001 26.481997233273255
6.6300000000000106 26.602946320283205
6.660000000000011 26.723919965324846
6.690000000000011 26.84489972271854
6.720000000000011 26.965868170623946
6.7500000000000115 27.086810959140422
6.780000000000012 27.20771834016533
6.810000000000012 27.328586029989083
6.840000000000012 27.44941534674526
6.8700000000000125 27.570212656633764
6.900000000000013 27.69098824425924
6.930000000000013 27.811754784913447
6.960000000000013 27.932525632484854
6.9900000000000135 28.053313144780674
7.020000000000014 28.17412724857029
7.050000000000014 28.294974403561234
7.080000000000014 28.415857065148433
7.1100000000000145 28.53677367789679
7.140000000000015 28.65771916438653
7.170000000000015 28.778685815847794
7.200000000000015 28.899664447659468
7.2300000000000155 29.020645659525357
7.260000000000016 29.141621037685333
7.290000000000016 29.262584154537425
7.320000000000016 29.383531255469407
7.3500000000000165 29.50446156855915
7.380000000000017 29.625377223677198
7.410000000000017 29.74628281667257
7.440000000000017 29.867184695963672
7.4700000000000175 29.988090078166252
7.500000000000018 30.10900611367437
7.530000000000018 30.229939021569674
7.560000000000018 30.35089339692694
7.5900000000000185 30.471871765552677
7.620000000000019 30.592874425708704
7.650000000000019 30.713899578099415
7.680000000000019 30.834943709542372
7.7100000000000195 30.95600216638495
7.74000000000002 31.077069834103895
7.77000000000002 31.198141831661744
7.80000000000002 31.31921413301204
7.8300000000000205 31.440284042796424
7.860000000000021 31.5613504759626
7.890000000000021 31.68241401861905
7.920000000000021 31.80347677615442
7.9500000000000215 31.92454204075932
7.980000000000022 32.045613831049096
8.010000000000021 32.166696369109076
8.04000000000002 32.28779356407121
8.07000000000002 32.408908566252364
8.10000000000002 32.5300434430465
8.130000000000019 32.65119900944594
8.160000000000018 32.77237482472495
8.190000000000017 32.893569345367446
8.220000000000017 33.01478020550751
8.250000000000016 33.13600458193985
8.280000000000015 33.257239592849544
8.310000000000015 33.37848267835524
8.340000000000014 33.49973191646497
8.370000000000013 33.62098623900163
8.400000000000013 33.742245526682495
8.430000000000012 33.86351057896956
8.460000000000012 33.984782970103865
8.49000000000001 34.10606481636559
8.52000000000001 34.227358488936105
8.55000000000001 34.34866631152076
8.580000000000009 34.46999028133901
8.610000000000008 34.5913318466993
8.640000000000008 34.712691765286095
8.670000000000007 34.83407005579095
8.700000000000006 34.95546604297107
8.730000000000006 35.07687848459906
8.760000000000005 35.198305759374065
8.790000000000004 35.31974608817846
8.820000000000004 35.44119775918142
8.850000000000003 35.56265932836044
8.880000000000003 35.684129771949856
8.910000000000002 35.805608574818514
8.940000000000001 35.92709574783527
8.97 36.04859177654038
9.0 36.17009751199175
9.03 36.29161402096413
9.059999999999999 36.413142416916614
9.089999999999998 36.53468369402947
9.119999999999997 36.65623858478951
9.149999999999997 36.777807457259065
9.179999999999996 36.89939026223252
9.209999999999996 37.020986533649555
9.239999999999995 37.14259543873812
9.269999999999994 37.264215868252855
9.299999999999994 37.38584655273226
9.329999999999993 37.50748618869805
9.359999999999992 37.62913355820884
9.389999999999992 37.75078762729722
9.419999999999991 37.87244761241181
9.44999999999999 37.994113008760394
9.47999999999999 38.11578357962525
9.50999999999999 38.237459310804496
9.539999999999988 38.3591403383208
9.569999999999988 38.48082686039676
9.599999999999987 38.60251904547525
9.629999999999987 38.724216948260974
9.659999999999986 38.84592044402263
9.689999999999985 38.96762918830824
9.719999999999985 39.089342605366255
9.749999999999984 39.21105990467827
9.779999999999983 39.33278012134921
9.809999999999983 39.45450217406846
9.839999999999982 39.57622493202892
9.869999999999981 39.69794728189228
9.89999999999998 39.81966818654922
9.92999999999998 39.94138672896246
9.95999999999998 40.06310213622734
9.989999999999979 40.18481378240572
10.019999999999978 40.30006930057998
10.049999999999978 40.398235368949564
10.079999999999977 40.4695864302432
10.109999999999976 40.507570528111714
10.139999999999976 40.50979385863272
10.169999999999975 40.47820506284974
10.199999999999974 40.41867181567066
10.229999999999974 40.340087517983804
10.259999999999973 40.25315616458707
10.289999999999973 40.16902166874573
10.319999999999972 40.09791360135777
10.349999999999971 40.04796891435805
10.37999999999997 40.02435988655603
10.40999999999997 40.02881638138868
10.43999999999997 40.05958090087641
10.469999999999969 40.11178337509451
10.499999999999968 40.17817438031048
10.529999999999967 40.2501153379248
10.559999999999967 40.31869647010861
10.589999999999966 40.37584116459442
10.619999999999965 40.415260829577434
10.649999999999965 40.433146940066
10.679999999999964 40.42852402325574
10.709999999999964 40.403233606859985
10.739999999999963 40.361567938355805
10.769999999999962 40.30961650572665
10.799999999999962 40.254421995096635
10.829999999999961 40.2030612781159
10.85999999999996 40.16176990328904
10.88999999999996 40.13521627320565
10.919999999999959 40.126007114142105
10.949999999999958 40.134472948083335
10.979999999999958 40.15874551623993
11.009999999999957 40.19510290324821
11.039999999999957 40.23852651932472
11.069999999999956 40.28339054533023
11.099999999999955 40.32419150549301
11.129999999999955 40.356224649863016
11.159999999999954 40.37612476444788
11.189999999999953 40.382210181253846
11.219999999999953 40.37459703388315
11.249999999999952 40.35508207829124
11.279999999999951 40.32682221895702
11.30999999999995 40.29386322704611
11.33999999999995 40.26058606392233
11.36999999999995 40.23114522005918
11.399999999999949 40.20896958613504
11.429999999999948 40.19638390090475
11.459999999999948 40.19439006391456
11.489999999999947 40.20262534218226
11.519999999999946 40.21949165146276
11.549999999999946 40.24242939891542
11.579999999999945 40.26829314370822
11.609999999999944 40.2937762635403
11.639999999999944 40.31582883905221
11.669999999999943 40.332017122847105
11.699999999999942 40.34078341848055
11.729999999999942 40.34158029106093
11.759999999999941 40.33487056735993
11.78999999999994 40.32200210609325
11.81999999999994 40.30498151500677
11.84999999999994 40.286182024674694
11.879999999999939 40.268026473016775
11.909999999999938 40.25268649318387
11.939999999999937 40.241833975666104
11.969999999999937 40.23647174956612
11.999999999999936 40.23685867607472
12.029999999999935 40.24253160351921
12.059999999999935 40.252414525547344
12.089999999999934 40.264995224832305
12.119999999999933 40.27854275239521
12.149999999999933 40.29133592606897
12.179999999999932 40.30187377850797
12.209999999999932 40.30904320676075
12.239999999999931 40.31222620410483
12.26999999999993 40.311337890964175
12.29999999999993 40.30679587101882
12.329999999999929 40.29942998360058
12.359999999999928 40.290348270146595
12.389999999999928 40.28077919618056
12.419999999999927 40.271911538795266
12.449999999999926 40.26475192854596
12.479999999999926 40.26001623791209
12.509999999999925 40.25806551006957
12.539999999999925 40.25889075224916
12.569999999999924 40.262144523840625
12.599999999999923 40.2672116303354
12.629999999999923 40.273307010628436
12.659999999999922 40.27958649371519
12.689999999999921 40.285255657322196
12.71999999999992 40.289663452218036
12.74999999999992 40.292370239945086
12.77999999999992 40.29318393233994
12.809999999999919 40.2921624252957
12.839999999999918 40.289584882850185
12.869999999999918 40.28589810290026
12.899999999999917 40.28164677928476
12.929999999999916 40.2773977293024
12.959999999999916 40.273668037947424
12.989999999999915 40.27086571669862
13.019999999999914 40.269249162991315
13.049999999999914 40.26890881043023
13.079999999999913 40.26977129395431
13.109999999999912 40.27162361406961
13.139999999999912 40.274152505944784
13.169999999999911 40.276992739278995
13.19999999999991 40.279777509458384
13.22999999999991 40.28218442221856
13.25999999999991 40.28397170454238
13.289999999999909 40.285000982743014
13.319999999999908 40.28524498815021
13.349999999999907 40.2847805997613
13.379999999999907 40.28376944716006
13.409999999999906 40.28242966768762
13.439999999999905 40.28100320186378
13.469999999999905 40.27972317407502
13.499999999999904 40.27878547606835
13.529999999999903 40.27832775836676
13.559999999999903 40.27841779832957
13.589999999999902 40.27905184155291
13.619999999999902 40.280162190191945
13.6499999999999 40.28163220231416
13.6799999999999 40.28331609143419
13.7099999999999 40.28506054451912
13.739999999999899 40.28672522079011
13.769999999999898 40.288199609836
13.799999999999898 40.28941442867373
13.829999999999897 40.290346609697465
13.859999999999896 40.29101784359712
13.889999999999896 40.29148747610682
13.919999999999895 40.29184121239629
13.949999999999894 40.292177489425086
13.979999999999894 40.29259350542404
14.009999999999893 40.29317275528496
14.039999999999893 40.29397555352127
14.069999999999892 40.29503349904388
14.099999999999891 40.296348234771926
14.12999999999989 40.29789426229448
14.15999999999989 40.29962506315933
14.18999999999989 40.301481414046776
14.219999999999889 40.303400597430795
14.249999999999888 40.30532520949096
14.279999999999887 40.3072104376959
14.309999999999887 40.309028985005796
14.339999999999886 40.31077320230658
14.369999999999886 40.3124543974143
14.399999999999885 40.314099666042345
14.429999999999884 40.3157468883478
14.459999999999884 40.31743872107411
14.489999999999883 40.319216476600864
14.519999999999882 40.32111471806399
14.549999999999882 40.3231572324572
14.579999999999881 40.325354802716824
14.60999999999988 40.327704924993284
14.63999999999988 40.33019334587131
14.66999999999988 40.332797061393656
14.699999999999878 40.33548825382729
14.729999999999878 40.33823855964797
14.759999999999877 40.341023067587386
14.789999999999877 40.343823530007356
14.819999999999876 40.346630417397726
14.849999999999875 40.34944362985962
14.879999999999875 40.352271873994994
14.909999999999874 40.355130891196175
14.939999999999873 40.3580408624229
14.969999999999873 40.36102339997961
14.999999999999872 40.36409856143919
15.029999999999871 40.36728228515351
15.05999999999987 40.37058456017172
15.08999999999987 40.374008523143644
15.11999999999987 40.377550536977644
15.149999999999869 40.38120117121325
15.179999999999868 40.3849468894773
15.209999999999868 40.388772170115885
15.239999999999867 40.392661748090845
15.269999999999866 40.396602671220535
15.299999999999866 40.400585910186344
15.329999999999865 40.404607339522364
15.359999999999864 40.40866800223813
15.389999999999864 40.41277367107271
15.419999999999863 40.41693381125457
15.449999999999863 40.4211601203952
15.479999999999862 40.425464865217016
15.509999999999861 40.42985924654141
15.53999999999986 40.43435200505814
15.56999999999986 40.438948434002356
15.59999999999986 40.443649901960875
15.629999999999859 40.448453914881675
15.659999999999858 40.45335467455284
15.689999999999857 40.4583440288435
15.719999999999857 40.46341266502283
15.749999999999856 40.46855137540403
15.779999999999855 40.47375222713215
15.809999999999855 40.47900949087364
15.839999999999854 40.48432022441071
15.869999999999854 40.48968445846168
15.899999999999853 40.49510498723297
15.929999999999852 40.50058681581984
15.959999999999852 40.50613635820922
15.989999999999851 40.51176050467224
16.01999999999985 40.51746568577836
16.04999999999985 40.52325705215361
16.079999999999853 40.529137866591654
16.109999999999854 40.53510917223163
16.139999999999855 40.541169760846046
16.169999999999856 40.547316425554726
16.199999999999857 40.55354444723834
16.22999999999986 40.5598482377365
16.25999999999986 40.56622204724442
16.28999999999986 40.572660641908435
16.31999999999986 40.57915986783475
16.349999999999863 40.58571703799767
16.379999999999864 40.592331105204025
