# Results for "element" with Id # 2880585 for search config "initial" at position: x0: -500; y0: 0; z0: 51.724137931
# time VELOCITY_X
0.03 0.006986591763326798
0.06 0.030988516266806026
0.09 0.08135376190509015
0.12 0.16505782529942073
0.15 0.28589042432516715
0.18 0.4441613177070866
0.21 0.6367977187807149
0.24 0.8577635447814559
0.27 1.0987339682390744
0.30000000000000004 1.3499487207761225
0.33000000000000007 1.6011584032093067
0.3600000000000001 1.842574499137373
0.3900000000000001 2.0657372854674585
0.42000000000000015 2.2642265188280506
0.4500000000000002 2.434156627469605
0.4800000000000002 2.5744198824052638
0.5100000000000002 2.686665496211442
0.5400000000000003 2.7750274963547925
0.5700000000000003 2.845637077499191
0.6000000000000003 2.905973728912694
0.6300000000000003 2.964122029054437
0.6600000000000004 3.028006598230753
0.6900000000000004 3.1046761378160754
0.7200000000000004 3.19969935315383
0.7500000000000004 3.3167221140549743
0.7800000000000005 3.4572181400487083
0.8100000000000005 3.6204466507937068
0.8400000000000005 3.8036115718101824
0.8700000000000006 4.002199568825665
0.9000000000000006 4.210459627069329
0.9300000000000006 4.4219760179575145
0.9600000000000006 4.630279970831453
0.9900000000000007 4.829443598736578
1.0200000000000007 5.014602765293124
1.0500000000000007 5.1823634077519705
1.0800000000000007 5.331057724707467
1.1100000000000008 5.460831517152109
1.1400000000000008 5.573560383355304
1.1700000000000008 5.672608730919899
1.2000000000000008 5.762459989977471
1.2300000000000009 5.848257542043433
1.260000000000001 5.935302684843176
1.290000000000001 6.02855798399825
1.320000000000001 6.132201687233484
1.350000000000001 6.249272097464945
1.380000000000001 6.381430839828201
1.410000000000001 6.5288619364434215
1.440000000000001 6.690310691374335
1.470000000000001 6.863253701721898
1.500000000000001 7.044179862244751
1.5300000000000011 7.228952881217018
1.5600000000000012 7.413219296813281
1.5900000000000012 7.592822781011384
1.6200000000000012 7.764185923853856
1.6500000000000012 7.924624690189073
1.6800000000000013 8.072567976520048
1.7100000000000013 8.207664473110405
1.7400000000000013 8.330770369901176
1.7700000000000014 8.443823153888973
1.8000000000000014 8.549617599266025
1.8300000000000014 8.651508945240636
1.8600000000000014 8.75307432011875
1.8900000000000015 8.857766233066924
1.9200000000000015 8.96859129431836
1.9500000000000015 9.087843525150186
1.9800000000000015 9.216915238769007
2.0100000000000016 9.356200270078237
2.0400000000000014 9.505095151259406
2.070000000000001 9.66209452651223
2.100000000000001 9.824968480534377
2.130000000000001 9.991002226737043
2.1600000000000006 10.157273365807217
2.1900000000000004 10.320939093028185
2.22 10.47950556447296
2.25 10.631054117494912
2.28 10.77440393390535
2.3099999999999996 10.909197531864162
2.3399999999999994 11.035903458462904
2.369999999999999 11.15573888294275
2.399999999999999 11.27052257977679
2.429999999999999 11.382475251958518
2.4599999999999986 11.493988652198482
2.4899999999999984 11.607387160273712
2.5199999999999982 11.724705248465673
2.549999999999998 11.847501780302137
2.579999999999998 11.97672769826181
2.6099999999999977 12.112657876489294
2.6399999999999975 12.25489134659662
2.6699999999999973 12.402417379519264
2.699999999999997 12.553738641248554
2.729999999999997 12.707037396414357
2.7599999999999967 12.860366978336657
2.7899999999999965 13.01184880229854
2.8199999999999963 13.159855247976424
2.849999999999996 13.303160739731014
2.879999999999996 13.441047087094073
2.9099999999999957 13.573354199496427
2.9399999999999955 13.700473104170344
2.9699999999999953 13.82328414382995
2.999999999999995 13.943048679648681
3.029999999999995 14.061267017122317
3.0599999999999947 14.179518193042266
3.0899999999999945 14.299298471647012
3.1199999999999943 14.421874848816381
3.149999999999994 14.548167697242933
3.179999999999994 14.678673190141678
3.2099999999999937 14.813431721965614
3.2399999999999936 14.952043675185237
3.2699999999999934 15.093729056694436
3.299999999999993 15.237423219618208
3.329999999999993 15.381897510148299
3.3599999999999928 15.525891543890797
3.3899999999999926 15.668243111582811
3.4199999999999924 15.808002475683615
3.449999999999992 15.944519928726104
3.479999999999992 16.077498685040283
3.509999999999992 16.207009095027242
3.5399999999999916 16.3334643643519
3.5699999999999914 16.45756196884423
3.599999999999991 16.580198356626383
3.629999999999991 16.702366986366396
3.659999999999991 16.82505104457308
3.6899999999999906 16.94912223162065
3.7199999999999904 17.075255861255528
3.7499999999999902 17.20387035829745
3.77999999999999 17.335096333868204
3.80999999999999 17.46877710224451
3.8399999999999896 17.604499137703296
3.8699999999999894 17.741647904530637
3.8999999999999893 17.87948203535316
3.929999999999989 18.017217213616355
3.959999999999989 18.15411047639845
3.9899999999999887 18.2895360243198
4.019999999999989 18.423044928924245
4.049999999999989 18.554403188241043
4.079999999999989 18.683605145776767
4.10999999999999 18.81086205799551
4.13999999999999 18.93656826028759
4.16999999999999 19.06124965641236
4.19999999999999 19.185500912875224
4.229999999999991 19.30991862964124
4.259999999999991 19.435037821494515
4.289999999999991 19.561278318758585
4.319999999999991 19.688906298155764
4.349999999999992 19.81801426866239
4.379999999999992 19.94852068986332
4.409999999999992 20.080188233720456
4.439999999999992 20.212657747851093
4.469999999999993 20.34549343880325
4.499999999999993 20.4782338138602
4.529999999999993 20.610442578770417
4.559999999999993 20.741753995026098
4.589999999999994 20.871908088961785
4.619999999999994 21.000772451084494
4.649999999999994 21.128348997683883
4.679999999999994 21.254765794032352
4.709999999999995 21.380255663080074
4.739999999999995 21.505124652176463
4.769999999999995 21.62971436851154
4.799999999999995 21.754362640873786
4.829999999999996 21.879366897311666
4.859999999999996 22.004954103728846
4.889999999999996 22.13126017090384
4.919999999999996 22.25832053435754
4.949999999999997 22.386072287167085
4.979999999999997 22.514366954664307
5.009999999999997 22.6429918814536
5.039999999999997 22.7716973693319
5.069999999999998 22.900226234950104
5.099999999999998 23.02834238108502
5.129999999999998 23.15585528466383
5.159999999999998 23.2826379383391
5.189999999999999 23.40863665548115
5.219999999999999 23.533872147617195
5.249999999999999 23.65843229064434
5.279999999999999 23.78245789676337
5.31 23.90612350935278
5.34 24.029615670940927
5.37 24.1531112465501
5.4 24.27675821860971
5.430000000000001 24.40066094371492
5.460000000000001 24.524871236826637
5.490000000000001 24.64938591035274
5.520000000000001 24.774150631202577
5.550000000000002 24.899069256974297
5.580000000000002 25.02401724809949
5.610000000000002 25.148857382308254
5.640000000000002 25.27345585047767
5.670000000000003 25.39769689176561
5.700000000000003 25.521494409323044
5.730000000000003 25.644799450701274
5.760000000000003 25.767602979069594
5.790000000000004 25.88993393415842
5.820000000000004 26.01185311733987
5.850000000000004 26.13344387636556
5.880000000000004 26.254800866460503
5.910000000000005 26.3760182992671
5.940000000000005 26.49717905616409
5.970000000000005 26.61834585196961
6.000000000000005 26.739555320793578
6.030000000000006 26.860815501185183
6.060000000000006 26.982106775002478
6.090000000000006 27.10338591407284
6.120000000000006 27.224592554349893
6.150000000000007 27.345657182898307
6.180000000000007 27.46650961037589
6.210000000000007 27.5870869160412
6.240000000000007 27.707339982833602
6.270000000000008 27.82723796444712
6.300000000000008 27.946770311791536
6.330000000000008 28.065946295908653
6.360000000000008 28.184792260639934
6.390000000000009 28.30334708722468
6.420000000000009 28.421656528012562
6.450000000000009 28.53976715247901
6.480000000000009 28.657720642684712
6.51000000000001 28.775549081919884
6.54000000000001 28.89327171739799
6.57000000000001 29.010893471167467
6.60000000000001 29.128405248721258
6.6300000000000106 29.245785877990222
6.660000000000011 29.363005330646036
6.690000000000011 29.48002875144331
6.720000000000011 29.596820759054985
6.7500000000000115 29.713349487978657
6.780000000000012 29.82958991053343
6.810000000000012 29.945526095878346
6.840000000000012 30.061152215245418
6.8700000000000125 30.17647226583408
6.900000000000013 30.291498640940052
6.930000000000013 30.406249803942423
6.960000000000013 30.520747410754876
6.9900000000000135 30.63501326680718
7.020000000000014 30.749066497491402
7.050000000000014 30.86292125722599
7.080000000000014 30.976585214210353
7.1100000000000145 31.09005893679504
7.140000000000015 31.203336188528258
7.170000000000015 31.316405029132707
7.200000000000015 31.42924952764029
7.2300000000000155 31.541851833801434
7.260000000000016 31.65419432885434
7.290000000000016 31.766261587396375
7.320000000000016 31.87804192438861
7.3500000000000165 31.9895283681516
7.380000000000017 32.10071898262016
7.410000000000017 32.2116165474792
7.440000000000017 32.322227683073166
7.4700000000000175 32.4325615688635
7.500000000000018 32.54262844337666
7.530000000000018 32.65243808701295
7.560000000000018 32.76199847681965
7.5900000000000185 32.87131476736453
7.620000000000019 32.98038870053621
7.650000000000019 33.08921848628528
7.680000000000019 33.19779913488963
7.7100000000000195 33.30612316693679
7.74000000000002 33.41418158517104
7.77000000000002 33.52196496811778
7.80000000000002 33.62946453982462
7.8300000000000205 33.7366730834406
7.860000000000021 33.843585595201496
7.890000000000021 33.950199615161395
7.920000000000021 34.0565152160843
7.9500000000000215 34.16253467591535
7.980000000000022 34.2682618972908
8.010000000000021 34.3737016649323
8.04000000000002 34.478858845790405
8.07000000000002 34.5837376370349
8.10000000000002 34.68834095338197
8.130000000000019 34.79267002162374
8.160000000000018 34.896724219539244
8.190000000000017 35.000501162855855
8.220000000000017 35.103997012616816
8.250000000000016 35.2072069489816
8.280000000000015 35.3101257399003
8.310000000000015 35.41274832613566
8.340000000000014 35.515070347335914
8.370000000000013 35.61708854645981
8.400000000000013 35.71880100923581
8.430000000000012 35.82020721927513
8.460000000000012 35.921307933771686
8.49000000000001 36.022104907605886
8.52000000000001 36.12260051063477
8.55000000000001 36.22279729364866
8.580000000000009 36.32269756158855
8.610000000000008 36.42230300782453
8.640000000000008 36.52161445202431
8.670000000000007 36.620631708322705
8.700000000000006 36.71935359226354
8.730000000000006 36.817778056925185
8.760000000000005 36.91590243310203
8.790000000000004 37.013723735501785
8.820000000000004 37.111238992312536
8.850000000000003 37.20844555473377
8.880000000000003 37.305341348284514
8.910000000000002 37.401925037434715
8.940000000000001 37.49819608801647
8.97 37.59415472571496
9.0 37.689801802770845
9.03 37.78513859524966
9.059999999999999 37.88016656113994
9.089999999999998 37.974887092661085
9.119999999999997 38.06930129446383
9.149999999999997 38.16340981391584
9.179999999999996 38.25721274171094
9.209999999999996 38.350709591282076
9.239999999999995 38.443899354919544
9.269999999999994 38.53678062436609
9.299999999999994 38.62935175625486
9.329999999999993 38.72161105904853
9.359999999999992 38.8135569761663
9.389999999999992 38.90518824217646
9.419999999999991 38.99650399392797
9.44999999999999 39.08750382563358
9.47999999999999 39.1781877844252
9.50999999999999 39.26855631119536
9.539999999999988 39.358610137355456
9.569999999999988 39.44835015359902
9.599999999999987 39.53777726763238
9.629999999999987 39.62689226978609
9.659999999999986 39.71569572399377
9.689999999999985 39.80418789673883
9.719999999999985 39.89236873034548
9.749999999999984 39.98023786053409
9.779999999999983 40.06779467173414
9.809999999999983 40.15503838188214
9.839999999999982 40.24196814466986
9.869999999999981 40.32858315511391
9.89999999999998 40.41488274469664
9.92999999999998 40.50086645410329
9.95999999999998 40.58653407572782
9.989999999999979 40.67188566218799
10.019999999999978 40.75119709299357
10.049999999999978 40.81354311539279
10.079999999999977 40.84765080396108
10.109999999999976 40.84497644330018
10.139999999999976 40.80117033335274
10.169999999999975 40.716636058996194
10.199999999999974 40.596410231424656
10.229999999999974 40.4494740164891
10.259999999999973 40.287610902296144
10.289999999999973 40.12395893096508
10.319999999999972 39.971435241780185
10.349999999999971 39.841222171009534
10.37999999999997 39.74149321895952
10.40999999999997 39.67652533244869
10.43999999999997 39.646295678526464
10.469999999999969 39.646602426588444
10.499999999999968 39.66968657142614
10.529999999999967 39.70527210917779
10.559999999999967 39.74189153401396
10.589999999999966 39.76832872519218
10.619999999999965 39.774997060790994
10.649999999999965 39.75507986129512
10.679999999999964 39.70529277231527
10.709999999999964 39.626179369182665
10.739999999999963 39.52191465818582
10.769999999999962 39.39965670214794
10.799999999999962 39.2685445970122
10.829999999999961 39.1384833528749
10.85999999999996 39.01887796179094
10.88999999999996 38.917478397279524
10.919999999999959 38.839476275699695
10.949999999999958 38.78695644894378
10.979999999999958 38.7587584540941
11.009999999999957 38.7507497216804
11.039999999999957 38.75646105015753
11.069999999999956 38.767991043775396
11.099999999999955 38.777055177512615
11.129999999999955 38.776040617485656
11.159999999999954 38.75893182177486
11.189999999999953 38.72199355168065
11.219999999999953 38.66413403885169
11.249999999999952 38.586916263179155
11.279999999999951 38.494232856784336
11.30999999999995 38.39170323314571
11.33999999999995 38.28588437548489
11.36999999999995 38.18340547018075
11.399999999999949 38.09013983026023
11.429999999999948 38.01051606321721
11.459999999999948 37.94704689248806
11.489999999999947 37.90012227815485
11.519999999999946 37.86807792641728
11.549999999999946 37.84751543418853
11.579999999999945 37.8338202906994
11.609999999999944 37.8218021251807
11.639999999999944 37.806370277177884
11.669999999999943 37.78315795234639
11.699999999999942 37.74901948092059
11.729999999999942 37.70234556846775
11.759999999999941 37.643167824647314
11.78999999999994 37.5730524483137
11.81999999999994 37.49480977610621
11.84999999999994 37.4120680100956
11.879999999999939 37.32877334367727
11.909999999999938 37.24868368590434
11.939999999999937 37.17491931613534
11.969999999999937 37.109622288102926
11.999999999999936 37.053759315760445
12.029999999999935 37.007082729772705
12.059999999999935 36.968243579508034
12.089999999999934 36.935032575764794
12.119999999999933 36.9047104070385
12.149999999999933 36.87438047833825
12.179999999999932 36.84135501074935
12.209999999999932 36.80346959266663
12.239999999999931 36.75931079613853
12.26999999999993 36.70833480799733
12.29999999999993 36.65087023250101
12.329999999999929 36.5880132091563
12.359999999999928 36.521435841397306
12.389999999999928 36.45313816132315
12.419999999999927 36.385178570524225
12.449999999999926 36.31941767145876
12.479999999999926 36.25730603372941
12.509999999999925 36.19973862727914
12.539999999999925 36.14698866480111
12.569999999999924 36.09872281646769
12.599999999999923 36.054089589924786
12.629999999999923 36.01186429092241
12.659999999999922 35.97062829253327
12.689999999999921 35.92895783793897
12.71999999999992 35.88559835718171
12.74999999999992 35.83960396206033
12.77999999999992 35.79042771157193
12.809999999999919 35.737955500036634
12.839999999999918 35.682484000077544
12.869999999999918 35.62464999632351
12.899999999999917 35.565323868116415
12.929999999999916 35.505483358468645
12.959999999999916 35.44608484737681
12.989999999999915 35.38794819957054
13.019999999999914 35.33166821318792
13.049999999999914 35.277561297808795
13.079999999999913 35.225650925083244
13.109999999999912 35.17569030599728
13.139999999999912 35.12721628574305
13.169999999999911 35.07962510836267
13.19999999999991 35.03225880454031
13.22999999999991 34.98449061216087
13.25999999999991 34.935798964143586
13.289999999999909 34.88582190981566
13.319999999999908 34.83438697836983
13.349999999999907 34.78151498389447
13.379999999999907 34.727399644587834
13.409999999999906 34.67236772861729
13.439999999999905 34.616826434659274
13.469999999999905 34.56120569631449
13.499999999999904 34.505903030554165
13.529999999999903 34.45123753540835
13.559999999999903 34.397417896768644
13.589999999999902 34.34452707542977
13.619999999999902 34.29252402017471
13.6499999999999 34.24126060169005
13.6799999999999 34.19051022926859
13.7099999999999 34.14000348248006
13.739999999999899 34.0894656501881
13.769999999999898 34.03865130748601
13.799999999999898 33.98737188966607
13.829999999999897 33.9355134830458
13.859999999999896 33.883043540652075
13.889999999999896 33.8300067491815
13.919999999999895 33.7765116176361
13.949999999999894 33.72271037645342
13.979999999999894 33.6687753719302
14.009999999999893 33.614875279403854
14.039999999999893 33.56115415984722
14.069999999999892 33.50771572690103
14.099999999999891 33.45461430432559
14.12999999999989 33.40185296109422
14.15999999999989 33.34938834914875
14.18999999999989 33.297140964574794
14.219999999999889 33.245008983479394
14.249999999999888 33.19288354214372
14.279999999999887 33.14066335797086
14.309999999999887 33.08826688266611
14.339999999999886 33.03564067261012
14.369999999999886 32.98276327482614
14.399999999999885 32.929644574889444
14.429999999999884 32.87632114586229
14.459999999999884 32.82284860141342
14.489999999999883 32.7692922490994
14.519999999999882 32.71571743516026
14.549999999999882 32.66218087517498
14.579999999999881 32.60872400766243
14.60999999999988 32.555369042866836
14.63999999999988 32.502117961745455
14.66999999999988 32.44895430848109
14.699999999999878 32.39584726567164
14.729999999999878 32.34275724766152
14.759999999999877 32.289642119295415
14.789999999999877 32.23646314938171
14.819999999999876 32.18318992594371
14.849999999999875 32.129803671893114
14.879999999999875 32.07629866651722
14.909999999999874 32.02268175891415
14.939999999999873 31.96897021502457
14.969999999999873 31.915188340940386
14.999999999999872 31.861363454108545
15.029999999999871 31.807521810705424
15.05999999999987 31.753685047067805
15.08999999999987 31.699867577681673
15.11999999999987 31.64607522206699
15.149999999999869 31.592305142795734
15.179999999999868 31.53854699129341
15.209999999999868 31.48478500350641
15.239999999999867 31.431000680723383
15.269999999999866 31.37717564230716
15.299999999999866 31.323294245887293
15.329999999999865 31.269345634326694
15.359999999999864 31.21532497209421
15.389999999999864 31.16123376110303
15.419999999999863 31.107079260994638
15.449999999999863 31.052873155396323
15.479999999999862 30.998629699273614
15.509999999999861 30.944363638177574
15.53999999999986 30.890088199834402
15.56999999999986 30.835813425460426
15.59999999999986 30.781545047920076
15.629999999999859 30.7272840351426
15.659999999999858 30.673026816685823
15.689999999999857 30.61876611977473
15.719999999999857 30.56449226311098
15.749999999999856 30.510194706922736
15.779999999999855 30.45586363307193
15.809999999999855 30.401491338258246
15.839999999999854 30.347073264857347
15.869999999999854 30.292608555080538
15.899999999999853 30.23810008599902
15.929999999999852 30.18355400877405
15.959999999999852 30.128978883475064
15.989999999999851 30.074384549830267
16.01999999999985 30.019780896199094
16.04999999999985 29.965176691843734
16.079999999999853 29.910578630935728
16.109999999999854 29.85599069995094
16.139999999999855 29.801413931719704
16.169999999999856 29.74684655556185
16.199999999999857 29.692284502827746
16.22999999999986 29.637722183301566
16.25999999999986 29.583153414663347
16.28999999999986 29.528572375680636
16.31999999999986 29.473974458442168
16.349999999999863 29.419356914467766
16.379999999999864 29.364719224398108
