# Results for "element" with Id # 2683286 for search config "initial" at position: x0: -250; y0: 0; z0: 245.689655172
# time VELOCITY_X
0.03 0.0072342007319036745
0.06 0.030318060625614256
0.09 0.07680587233619392
0.12 0.15202772098902778
0.15 0.2585300106314988
0.18 0.39590474487297916
0.21 0.5609284298320781
0.24 0.7479617568865966
0.27 0.9495586731542269
0.30000000000000004 1.1572224986468425
0.33000000000000007 1.3622362454113737
0.3600000000000001 1.5564882559442046
0.3900000000000001 1.7332148949180484
0.42000000000000015 1.887590371037524
0.4500000000000002 2.0171097880981357
0.4800000000000002 2.1217336878394932
0.5100000000000002 2.203788016509171
0.5400000000000003 2.2676392578720628
0.5700000000000003 2.3191870264454497
0.6000000000000003 2.365232992875714
0.6300000000000003 2.412793942825773
0.6600000000000004 2.4684278145772334
0.6900000000000004 2.537635481606797
0.7200000000000004 2.624389621572773
0.7500000000000004 2.7308270445954044
0.7800000000000005 2.857124325202108
0.8100000000000005 3.0015599199140937
0.8400000000000005 3.1607501877245445
0.8700000000000006 3.3300325461942517
0.9000000000000006 3.5039569593902833
0.9300000000000006 3.676837783321745
0.9600000000000006 3.8433125222277553
0.9900000000000007 3.998853310595723
1.0200000000000007 4.140181504052959
1.0500000000000007 4.26554577977405
1.0800000000000007 4.3748388092567385
1.1100000000000008 4.46954516122521
1.1400000000000008 4.552531356809639
1.1700000000000008 4.627705487820127
1.2000000000000008 4.6995864264238305
1.2300000000000009 4.7728300705854
1.260000000000001 4.851761873311261
1.290000000000001 4.939961502438035
1.320000000000001 5.0399378697337545
1.350000000000001 5.152922250862184
1.380000000000001 5.278794938116758
1.410000000000001 5.41614794388728
1.440000000000001 5.562473566049133
1.470000000000001 5.714456963562864
1.500000000000001 5.868341151391342
1.5300000000000011 6.020325910810387
1.5600000000000012 6.1669589041022
1.5900000000000012 6.305478459458647
1.6200000000000012 6.434073086438206
1.6500000000000012 6.55203245764982
1.6800000000000013 6.659777098625739
1.7100000000000013 6.758767837116373
1.7400000000000013 6.851309325186341
1.7700000000000014 6.9402730147214475
1.8000000000000014 7.028772565817057
1.8300000000000014 7.119828161016858
1.8600000000000014 7.216055489822865
1.8900000000000015 7.319410761416479
1.9200000000000015 7.431015744479975
1.9500000000000015 7.551077505442694
1.9800000000000015 7.678907241351635
2.0100000000000016 7.813032305433645
2.0400000000000014 7.951386150649628
2.070000000000001 8.091553288432946
2.100000000000001 8.231041230918205
2.130000000000001 8.367549279683258
2.1600000000000006 8.499205258410056
2.1900000000000004 8.624745692808705
2.22 8.743622085168028
2.25 8.856024855297646
2.28 8.96282611247179
2.3099999999999996 9.065451460726235
2.3399999999999994 9.165698444592008
2.369999999999999 9.26552420877317
2.399999999999999 9.366827052638474
2.429999999999999 9.471245814334447
2.4599999999999986 9.579997702638858
2.4899999999999984 9.693769932066706
2.5199999999999982 9.812673933302788
2.549999999999998 9.936263822785547
2.579999999999998 10.063613913278358
2.6099999999999977 10.193444017541427
2.6399999999999975 10.324276690412182
2.6699999999999973 10.454607812868156
2.699999999999997 10.583071278539057
2.729999999999997 10.708580042564211
2.7599999999999967 10.830429208530038
2.7899999999999965 10.948351713110382
2.8199999999999963 11.06252293979242
2.849999999999996 11.173516490774904
2.879999999999996 11.282218698792493
2.9099999999999957 11.389713642914408
2.9399999999999955 11.497153044157413
2.9699999999999953 11.605626247702885
2.999999999999995 11.716044592094168
3.029999999999995 11.829052028926021
3.0599999999999947 11.944970292092185
3.0899999999999945 12.063782656001377
3.1199999999999943 12.18515586874117
3.149999999999994 12.308495691879287
3.179999999999994 12.433028026431069
3.2099999999999937 12.557895210674712
3.2399999999999936 12.682255938841882
3.2699999999999934 12.805377459463708
3.299999999999993 12.926710183087733
3.329999999999993 13.04593736038981
3.3599999999999928 13.162995712897306
3.3899999999999926 13.278066438128967
3.4199999999999924 13.391539411655328
3.449999999999992 13.503956279534815
3.479999999999992 13.615940181348252
3.509999999999992 13.72812086762381
3.5399999999999916 13.841063935285248
3.5699999999999914 13.955211877778295
3.599999999999991 14.07084280887055
3.629999999999991 14.188050351719973
3.659999999999991 14.306745576073537
3.6899999999999906 14.426679323277384
3.7199999999999904 14.547481063209776
3.7499999999999902 14.668708808770635
3.77999999999999 14.789903708123258
3.80999999999999 14.910642816226364
3.8399999999999896 15.030584176173281
3.8699999999999894 15.14949960401207
3.8999999999999893 15.26729229153884
3.929999999999989 15.38399827442333
3.959999999999989 15.499772734594721
3.9899999999999887 15.614863779264677
4.019999999999989 15.729577591683416
4.049999999999989 15.844239554700613
4.079999999999989 15.959156074546664
4.10999999999999 16.074581401110272
4.13999999999999 16.190692849097925
4.16999999999999 16.307576608748263
4.19999999999999 16.42522495979913
4.229999999999991 16.54354434327359
4.259999999999991 16.662372541844576
4.289999999999991 16.78150231777248
4.319999999999991 16.90070832043818
4.349999999999992 17.019773947467485
4.379999999999992 17.13851510472744
4.409999999999992 17.256798403377505
4.439999999999992 17.374552162143537
4.469999999999993 17.491769535961822
4.499999999999993 17.608504048310362
4.529999999999993 17.7248586484071
4.559999999999993 17.840970066380887
4.589999999999994 17.956990628583412
4.619999999999994 18.073069805622595
4.649999999999994 18.189337604542853
4.679999999999994 18.305891532660766
4.709999999999995 18.422788307271347
4.739999999999995 18.54004084934311
4.769999999999995 18.657620456135213
4.799999999999995 18.775463474257847
4.829999999999996 18.893481339980408
4.859999999999996 19.011572576801157
4.889999999999996 19.129635234644745
4.919999999999996 19.247578339065683
4.949999999999997 19.365331148729247
4.979999999999997 19.482849368029267
5.009999999999997 19.60011787615562
5.039999999999997 19.7171499637426
5.069999999999998 19.833983458030946
5.099999999999998 19.950674428692164
5.129999999999998 20.067289385115274
5.159999999999998 20.183896959451676
5.189999999999999 20.300560047840413
5.219999999999999 20.41732924508043
5.249999999999999 20.53423819640138
5.279999999999999 20.65130122253591
5.31 20.76851329321857
5.34 20.885852159356304
5.37 21.00328223135651
5.4 21.120759628628686
5.430000000000001 21.238237746764355
5.460000000000001 21.35567267899122
5.490000000000001 21.473027901596563
5.520000000000001 21.59027776043587
5.550000000000002 21.707409464369853
5.580000000000002 21.82442348024623
5.610000000000002 21.9413324106419
5.640000000000002 22.058158598522162
5.670000000000003 22.17493082417896
5.700000000000003 22.291680535425154
5.730000000000003 22.408438069800113
5.760000000000003 22.525229294054185
5.790000000000004 22.64207300883825
5.820000000000004 22.758979352416553
5.850000000000004 22.875949308386588
5.880000000000004 22.992975290097185
5.910000000000005 23.11004265429512
5.940000000000005 23.22713190308588
5.970000000000005 23.344221271612472
6.000000000000005 23.46128937893298
6.030000000000006 23.57831763289306
6.060000000000006 23.695292131532163
6.090000000000006 23.81220488068318
6.120000000000006 23.929054239812547
6.150000000000007 24.045844601967932
6.180000000000007 24.162585402031723
6.210000000000007 24.279289618312063
6.240000000000007 24.395971979103564
6.270000000000008 24.512647104827796
6.300000000000008 24.629327805319075
6.330000000000008 24.746023717619934
6.360000000000008 24.862740417487746
6.390000000000009 24.97947907222838
6.420000000000009 25.096236634293046
6.450000000000009 25.213006510306414
6.480000000000009 25.3297795924316
6.51000000000001 25.44654550443944
6.54000000000001 25.56329389657895
6.57000000000001 25.68001563563415
6.60000000000001 25.796703760721407
6.6300000000000106 25.91335410879628
6.660000000000011 26.029965562097615
6.690000000000011 26.146539919271458
6.720000000000011 26.26308143396143
6.7500000000000115 26.379596100993812
6.780000000000012 26.496090795442537
6.810000000000012 26.61257237625475
6.840000000000012 26.72904686455741
6.8700000000000125 26.84551878737695
6.900000000000013 26.961990749458845
6.930000000000013 27.07846326782889
6.960000000000013 27.19493486497827
6.9900000000000135 27.311402387733402
7.020000000000014 27.427861497461485
7.050000000000014 27.544307259006846
7.080000000000014 27.66073475290348
7.1100000000000145 27.77713963691494
7.140000000000015 27.893518593748496
7.170000000000015 28.009869623239553
7.200000000000015 28.126192156463564
7.2300000000000155 28.24248699357361
7.260000000000016 28.358756086644192
7.290000000000016 28.475002205995835
7.320000000000016 28.591228537818427
7.3500000000000165 28.707438265536698
7.380000000000017 28.823634185500808
7.410000000000017 28.93981839941308
7.440000000000017 29.05599211357998
7.4700000000000175 29.172155559518934
7.500000000000018 29.288308035277723
7.530000000000018 29.404448053609393
7.560000000000018 29.520573571180964
7.5900000000000185 29.63668226550037
7.620000000000019 29.752771823496353
7.650000000000019 29.868840206691385
7.680000000000019 29.984885863868286
7.7100000000000195 30.100907870609483
7.74000000000002 30.216905984874696
7.77000000000002 30.332880618596732
7.80000000000002 30.44883273517018
7.8300000000000205 30.56476369094415
7.860000000000021 30.680675043244477
7.890000000000021 30.796568349602815
7.920000000000021 30.912444982773625
7.9500000000000215 31.02830598158315
7.980000000000022 31.144151952880627
8.010000000000021 31.259983031472185
8.04000000000002 31.375798898774775
8.07000000000002 31.491598854157512
8.10000000000002 31.607381925872893
8.130000000000019 31.723147005700472
8.160000000000018 31.838892989731747
8.190000000000017 31.954618908045337
8.220000000000017 32.070324029571786
8.250000000000016 32.18600793152764
8.280000000000015 32.3016705270331
8.310000000000015 32.41731205081114
8.340000000000014 32.53293300775994
8.370000000000013 32.64853409375145
8.400000000000013 32.76411609966074
8.430000000000012 32.879679811878226
8.460000000000012 32.99522592081397
8.49000000000001 33.11075494835164
8.52000000000001 33.22626720020359
8.55000000000001 33.34176274701855
8.580000000000009 33.457241434898194
8.610000000000008 33.572702921116324
8.640000000000008 33.68814672940883
8.670000000000007 33.80357231793378
8.700000000000006 33.91897915073367
8.730000000000006 34.03436676417018
8.760000000000005 34.14973482194243
8.790000000000004 34.265083148977084
8.820000000000004 34.3804117449741
8.850000000000003 34.4957207761802
8.880000000000003 34.61101054754163
8.910000000000002 34.72628145965497
8.940000000000001 34.841533956984335
8.97 34.95676847355367
9.0 35.07198538396296
9.03 35.1871849634602
9.059999999999999 35.30236736330458
9.089999999999998 35.417532603038964
9.119999999999997 35.53268057907348
9.149999999999997 35.64781108596727
9.179999999999996 35.76292384735262
9.209999999999996 35.87801855330188
9.239999999999995 35.993094900123765
9.269999999999994 36.10815262608345
9.299999999999994 36.22319153737383
9.329999999999993 36.33821152485813
9.359999999999992 36.45321256793358
9.389999999999992 36.568194726316754
9.419999999999991 36.68315812205495
9.44999999999999 36.79810291518986
9.47999999999999 36.913029276539824
9.50999999999999 37.02793736281514
9.539999999999988 37.14282729643997
9.569999999999988 37.25769915283441
9.599999999999987 37.37255295086398
9.629999999999987 37.487388649443936
9.659999999999986 37.60220615353567
9.689999999999985 37.717005329909846
9.719999999999985 37.83178602830207
9.749999999999984 37.94654810392962
9.779999999999983 38.061291434724055
9.809999999999983 38.17601593806341
9.839999999999982 38.290721583680586
9.869999999999981 38.40540840154872
9.89999999999998 38.520076484046136
9.92999999999998 38.63472598187838
9.95999999999998 38.74935709200358
9.989999999999979 38.863970039698124
10.019999999999978 38.97078556042776
10.049999999999978 39.0573678904305
10.079999999999977 39.113084314607796
10.109999999999976 39.13191016094789
10.139999999999976 39.11345456044498
10.169999999999975 39.06278488341808
10.199999999999974 38.98935002401269
10.229999999999974 38.90528272806731
10.259999999999973 38.8233996131051
10.289999999999973 38.755232794071205
10.319999999999972 38.709395808901924
10.349999999999971 38.69051125451725
10.37999999999997 38.69882326359473
10.40999999999997 38.730503173115245
10.43999999999997 38.778549557191674
10.469999999999969 38.8340993738116
10.499999999999968 38.887916442170855
10.529999999999967 38.93181275519181
10.559999999999967 38.95978744249974
10.589999999999966 38.96873029850694
10.619999999999965 38.95861994016458
10.649999999999965 38.93223406195351
10.679999999999964 38.89446543503237
10.709999999999964 38.851389790176476
10.739999999999963 38.80925417749737
10.769999999999962 38.77354699612878
10.799999999999962 38.74827929385195
10.829999999999961 38.73555957328249
10.85999999999996 38.735491388316674
10.88999999999996 38.746372199220325
10.919999999999959 38.765130824125364
10.949999999999958 38.78791345179674
10.979999999999958 38.81071676520371
11.009999999999957 38.829971180625364
11.039999999999957 38.8429954296996
11.069999999999956 38.848271586460065
11.099999999999955 38.84552221816501
11.129999999999955 38.83560262774375
11.159999999999954 38.82024699564984
11.189999999999953 38.801723588542686
11.219999999999953 38.78245996784864
11.249999999999952 38.7646949595737
11.279999999999951 38.750202129549045
11.30999999999995 38.74011281426504
11.33999999999995 38.73484872261015
11.36999999999995 38.7341575176946
11.399999999999949 38.737231964712485
11.429999999999948 38.74288491856549
11.459999999999948 38.74974930939599
11.489999999999947 38.75647376410892
11.519999999999946 38.76188954112715
11.549999999999946 38.76513190400013
11.579999999999945 38.765707471735325
11.609999999999944 38.763507185281384
11.639999999999944 38.758771320828096
11.669999999999943 38.752017711968364
11.699999999999942 38.743946943554675
11.729999999999942 38.7353386903497
11.759999999999941 38.72695207495235
11.78999999999994 38.719440491296304
11.81999999999994 38.713288230597236
11.84999999999994 38.70877298222985
11.879999999999939 38.705955158109624
11.909999999999938 38.70469226207084
11.939999999999937 38.70467428739905
11.969999999999937 38.705474428266726
11.999999999999936 38.70660838710225
12.029999999999935 38.70759516932704
12.059999999999935 38.7080125919666
12.089999999999934 38.707541700465306
12.119999999999933 38.70599583915891
12.149999999999933 38.703332080832794
12.179999999999932 38.69964484849105
12.209999999999932 38.69514363868079
12.239999999999931 38.690118560229
12.26999999999993 38.68489861770149
12.29999999999993 38.67980829632889
12.329999999999929 38.675127875693136
12.359999999999928 38.67106212640091
12.389999999999928 38.66772071383934
12.419999999999927 38.66511195361694
12.449999999999926 38.66314976553922
12.479999999999926 38.661671990299396
12.509999999999925 38.660466878574276
12.539999999999925 38.65930375863993
12.569999999999924 38.657963604534444
12.599999999999923 38.65626559301901
12.629999999999923 38.65408655155524
12.659999999999922 38.65137139657189
12.689999999999921 38.648133989128645
12.71999999999992 38.64444913268278
12.74999999999992 38.640437532494566
12.77999999999992 38.63624627710642
12.809999999999919 38.63202773582603
12.839999999999918 38.627919724088905
12.869999999999918 38.624029342741835
12.899999999999917 38.62042220504013
12.929999999999916 38.61711792322701
12.959999999999916 38.61409183409836
12.989999999999915 38.61128216021224
13.019999999999914 38.608601191838645
13.049999999999914 38.60594869412364
13.079999999999913 38.603225641631404
13.109999999999912 38.60034651891229
13.139999999999912 38.59724877541969
13.169999999999911 38.59389852489924
13.19999999999991 38.59029213126052
13.22999999999991 38.58645386297344
13.25999999999991 38.58243026962055
13.289999999999909 38.57828228401743
13.319999999999908 38.574076235965705
13.349999999999907 38.56987499364688
13.379999999999907 38.56573032538512
13.409999999999906 38.56167733650963
13.439999999999905 38.55773149608201
13.469999999999905 38.5538884092244
13.499999999999904 38.550126124108694
13.529999999999903 38.54640946098129
13.559999999999903 38.5426956318343
13.589999999999902 38.53894033187045
13.619999999999902 38.5351034931492
13.6499999999999 38.53115400825657
13.6799999999999 38.5270729109705
13.7099999999999 38.522854741340225
13.739999999999899 38.5185070756744
13.769999999999898 38.51404843465773
13.799999999999898 38.509504966821034
13.829999999999897 38.504906439842976
13.859999999999896 38.50028209496534
13.889999999999896 38.49565690451937
13.919999999999895 38.491048676594694
13.949999999999894 38.486466306589314
13.979999999999894 38.4819093090154
14.009999999999893 38.477368595861286
14.039999999999893 38.47282831309019
14.069999999999892 38.468268402066904
14.099999999999891 38.46366750460759
14.12999999999989 38.45900581489827
14.15999999999989 38.454267506357304
14.18999999999989 38.44944245006238
14.219999999999889 38.444527055910726
14.249999999999888 38.43952418543669
14.279999999999887 38.43444221811604
14.309999999999887 38.42929347343574
14.339999999999886 38.42409225529643
14.369999999999886 38.41885278980573
14.399999999999885 38.413587328047825
14.429999999999884 38.408304650737044
14.459999999999884 38.40300913213098
14.489999999999883 38.39770044503167
14.519999999999882 38.39237390421348
14.549999999999882 38.38702135416385
14.579999999999881 38.381632432996646
14.60999999999988 38.37619602408427
14.63999999999988 38.37070170314554
14.66999999999988 38.36514099705604
14.699999999999878 38.35950830241418
14.729999999999878 38.353801365717466
14.759999999999877 38.348021296043235
14.789999999999877 38.342172141401655
14.819999999999876 38.33626011298942
14.849999999999875 38.33029258308455
14.879999999999875 38.324277006127346
14.909999999999874 38.31821990705133
14.939999999999873 38.312126058791954
14.969999999999873 38.30599793971671
14.999999999999872 38.29983552954111
15.029999999999871 38.293636450561785
15.05999999999987 38.28739640431888
15.08999999999987 38.28110983309421
15.11999999999987 38.27477070258073
15.149999999999869 38.26837329340344
15.179999999999868 38.26191289018697
15.209999999999868 38.25538629038139
15.239999999999867 38.24879208656588
15.269999999999866 38.2421306975275
15.299999999999866 38.23540415941014
15.329999999999865 38.228615727464906
15.359999999999864 38.221769354534544
15.389999999999864 38.21486912214981
15.419999999999863 38.20791870420212
15.449999999999863 38.20092091709536
15.479999999999862 38.19387740637214
15.509999999999861 38.18678850058243
15.53999999999986 38.17965324414712
15.56999999999986 38.17246958668451
15.59999999999986 38.16523470988034
15.629999999999859 38.15794544397124
15.659999999999858 38.15059871414079
15.689999999999857 38.14319195844114
15.719999999999857 38.1357234595718
15.749999999999856 38.12819254684678
15.779999999999855 38.12059964611062
15.809999999999855 38.112946171962086
15.839999999999854 38.10523429133701
15.869999999999854 38.097466603772745
15.899999999999853 38.0896457956448
15.929999999999852 38.081774305284426
15.959999999999852 38.07385405436415
15.989999999999851 38.065886274497345
16.01999999999985 38.05787143327132
16.04999999999985 38.049809250532874
16.079999999999853 38.04169879130435
16.109999999999854 38.03353862299363
16.139999999999855 38.0253270159589
16.169999999999856 38.017062164178995
16.199999999999857 38.00874240216159
16.22999999999986 38.00036639845481
16.25999999999986 37.99193328999342
16.28999999999986 37.98344274033212
16.31999999999986 37.97489491368811
16.349999999999863 37.966290373047535
16.379999999999864 37.95762992048672
