# Results for "element" with Id # 2668594 for search config "initial" at position: x0: -250; y0: 0; z0: 25.8620689655
# time VELOCITY_X
0.03 0.0071177310636656825
0.06 0.029907924032592976
0.09 0.07585254922772786
0.12 0.1501725335444405
0.15 0.2552665259340661
0.18 0.39055524742457315
0.21 0.5526470202870484
0.24 0.7357692536155462
0.27 0.9324072472556276
0.30000000000000004 1.1340812051527525
0.33000000000000007 1.332183894453032
0.3600000000000001 1.518798455202866
0.3900000000000001 1.687419743886721
0.42000000000000015 1.8335136913549084
0.4500000000000002 1.9548665070405442
0.4800000000000002 2.051697661030057
0.5100000000000002 2.126534909970435
0.5400000000000003 2.1838734604312333
0.5700000000000003 2.229661967316871
0.6000000000000003 2.2706731449297486
0.6300000000000003 2.313824997174667
0.6600000000000004 2.3655195007531087
0.6900000000000004 2.4310597497698585
0.7200000000000004 2.514195334777784
0.7500000000000004 2.6168309847874855
0.7800000000000005 2.738917172234684
0.8100000000000005 2.8785250301228373
0.8400000000000005 3.0320926428007153
0.8700000000000006 3.1948161171996086
0.9000000000000006 3.3611472861506324
0.9300000000000006 3.525350796721648
0.9600000000000006 3.682067659611313
0.9900000000000007 3.8268308823867363
1.0200000000000007 3.956482747422972
1.0500000000000007 4.069452735658881
1.0800000000000007 4.165869608290298
1.1100000000000008 4.247499098892273
1.1400000000000008 4.317517687570877
1.1700000000000008 4.380150418833441
1.2000000000000008 4.440214266556386
1.2300000000000009 4.502616769963966
1.260000000000001 4.571861865207943
1.290000000000001 4.651611660718287
1.320000000000001 4.74434517062
1.350000000000001 4.851144227419626
1.380000000000001 4.971624024578846
1.410000000000001 5.104012022899253
1.440000000000001 5.245365098795912
1.470000000000001 5.39190162318717
1.500000000000001 5.539413733382536
1.5300000000000011 5.683716465786646
1.5600000000000012 5.821086095976828
1.5900000000000012 5.948640784435561
1.6200000000000012 6.064622949591153
1.6500000000000012 6.168554110432735
1.6800000000000013 6.2612478866487
1.7100000000000013 6.344683383549696
1.7400000000000013 6.42175704255699
1.7700000000000014 6.495944141930984
1.8000000000000014 6.570909900759458
1.8300000000000014 6.650113948000783
1.8600000000000014 6.736450596083906
1.8900000000000015 6.831961737895822
1.9200000000000015 6.937650041129486
1.9500000000000015 7.05340871687274
1.9800000000000015 7.178071617098575
2.0100000000000016 7.3095748800670295
2.0400000000000014 7.445209888440378
2.070000000000001 7.581937974148088
2.100000000000001 7.716731135697341
2.130000000000001 7.846900703731968
2.1600000000000006 7.97037796576744
2.1900000000000004 8.085916912621485
2.22 8.193198999810683
2.25 8.292831721442298
2.28 8.38624531058253
2.3099999999999996 8.475503384282286
2.3399999999999994 8.563052377936641
2.369999999999999 8.651440236210082
2.399999999999999 8.743036587205035
2.429999999999999 8.839784738356904
2.4599999999999986 8.943010731300541
2.4899999999999984 9.05330735514996
2.5199999999999982 9.170502195925742
2.549999999999998 9.293709559279794
2.579999999999998 9.421457288331132
2.6099999999999977 9.55187190180076
2.6399999999999975 9.682899825164114
2.6699999999999973 9.812539315091879
2.699999999999997 9.939057308689645
2.729999999999997 10.061167933454616
2.7599999999999967 10.178154475706714
2.7899999999999965 10.289923569103767
2.8199999999999963 10.396988445610647
2.849999999999996 10.500386186799574
2.879999999999996 10.601541086772485
2.9099999999999957 10.702091677699201
2.9399999999999955 10.803702132226604
2.9699999999999953 10.907879440271552
2.999999999999995 11.01581606994235
3.029999999999995 11.128274084081342
3.0599999999999947 11.245521469221114
3.0899999999999945 11.367325336779368
3.1199999999999943 11.49300032152802
3.149999999999994 11.621504608269046
3.179999999999994 11.75157112057396
3.2099999999999937 11.881857997003314
3.2399999999999936 12.011100904804723
3.2699999999999934 12.138250148000381
3.299999999999993 12.262577839031094
3.329999999999993 12.38374435021626
3.3599999999999928 12.501818293691423
3.3899999999999926 12.617249813289877
3.4199999999999924 12.730802308093846
3.449999999999992 12.843452202671024
3.479999999999992 12.956269560489526
3.509999999999992 13.070293884569521
3.5399999999999916 13.186419297534849
3.5699999999999914 13.305301545471508
3.599999999999991 13.427296209138158
3.629999999999991 13.552433573048157
3.659999999999991 13.680431245751626
3.6899999999999906 13.810741338913662
3.7199999999999904 13.942625268664695
3.7499999999999902 14.075246435745168
3.77999999999999 14.207769436615052
3.80999999999999 14.339454215797508
3.8399999999999896 14.469734660645072
3.8699999999999894 14.598273404715068
3.8999999999999893 14.724987742487214
3.929999999999989 14.850045132626736
3.959999999999989 14.973830364267831
3.9899999999999887 15.096889630921815
4.019999999999989 15.219859152067876
4.049999999999989 15.343387353571408
4.079999999999989 15.468059871780978
4.10999999999999 15.594335814258931
4.13999999999999 15.722501957048003
4.16999999999999 15.852649137320276
4.19999999999999 15.984672324863828
4.229999999999991 16.11829307001266
4.259999999999991 16.253100519644676
4.289999999999991 16.38860527155826
4.319999999999991 16.524299163762525
4.349999999999992 16.65971378312858
4.379999999999992 16.794471016371762
4.409999999999992 16.92832025644879
4.439999999999992 17.061158726598244
4.469999999999993 17.193033547679654
4.499999999999993 17.32412637949757
4.529999999999993 17.454723443910378
4.559999999999993 17.585175277032796
4.589999999999994 17.715851490435146
4.619999999999994 17.84709608179742
4.649999999999994 17.979188432008602
4.679999999999994 18.112314154815955
4.709999999999995 18.246548563492684
4.739999999999995 18.38185388767684
4.769999999999995 18.518089709005068
4.799999999999995 18.655034587386517
4.829999999999996 18.792415668789708
4.859999999999996 18.929942344940873
4.889999999999996 19.06733979989797
4.919999999999996 19.204378557089903
4.949999999999997 19.340896842855734
4.979999999999997 19.476813624342988
5.009999999999997 19.612131407919257
5.039999999999997 19.746929142573123
5.069999999999998 19.881346702966788
5.099999999999998 20.015563310189407
5.129999999999998 20.149772814002876
5.159999999999998 20.28415892243421
5.189999999999999 20.418873272086756
5.219999999999999 20.554018703645077
5.249999999999999 20.689639343309373
5.279999999999999 20.825718182854523
5.31 20.962181929730335
5.34 21.098912068261715
5.37 21.23576041980804
5.4 21.372567076071533
5.430000000000001 21.509178450939892
5.460000000000001 21.645463329219954
5.490000000000001 21.781325178367418
5.520000000000001 21.916709545673335
5.550000000000002 22.051606019462902
5.580000000000002 22.18604490535317
5.610000000000002 22.320089382523438
5.640000000000002 22.453824381119748
5.670000000000003 22.587343714286504
5.700000000000003 22.72073709687451
5.730000000000003 22.854078581646778
5.760000000000003 22.987417669964955
5.790000000000004 23.1207739516598
5.820000000000004 23.254135643748192
5.850000000000004 23.387461919994685
5.880000000000004 23.52068848618636
5.910000000000005 23.653735509480875
5.940000000000005 23.78651680072989
5.970000000000005 23.918949083429926
6.000000000000005 24.050960256383487
6.030000000000006 24.182495747788302
6.060000000000006 24.31352234957053
6.090000000000006 24.444029270433628
6.120000000000006 24.574026493088667
6.150000000000007 24.70354082747527
6.180000000000007 24.83261029403112
6.210000000000007 24.961277626684947
6.240000000000007 25.08958372858466
6.270000000000008 25.217561858863366
6.300000000000008 25.345233182600083
6.330000000000008 25.47260410734844
6.360000000000008 25.599665588504713
6.390000000000009 25.72639433968398
6.420000000000009 25.852755663480803
6.450000000000009 25.978707444460206
6.480000000000009 26.104204750529668
6.51000000000001 26.229204450556107
6.54000000000001 26.353669294881012
6.57000000000001 26.47757101670041
6.60000000000001 26.600892166707855
6.6300000000000106 26.723626553910705
6.660000000000011 26.84577834241147
6.690000000000011 26.967360017083628
6.720000000000011 27.08838954426967
6.7500000000000115 27.208887126525596
6.780000000000012 27.32887197384571
6.810000000000012 27.44835947016601
6.840000000000012 27.56735904848047
6.8700000000000125 27.68587297427046
6.900000000000013 27.803896115918665
6.930000000000013 27.921416663450056
6.960000000000013 28.038417626510835
6.9900000000000135 28.15487886866466
7.020000000000014 28.270779396918357
7.050000000000014 28.386099609344726
7.080000000000014 28.500823237256263
7.1100000000000145 28.614938771772636
7.140000000000015 28.7284402377399
7.170000000000015 28.84132727545043
7.200000000000015 28.95360456984676
7.2300000000000155 29.065280744815084
7.260000000000016 29.17636689887459
7.290000000000016 29.286874987380457
7.320000000000016 29.396816257629165
7.3500000000000165 29.506199917835357
7.380000000000017 29.615032186179512
7.410000000000017 29.723315806375453
7.440000000000017 29.831050053839338
7.4700000000000175 29.938231192964437
7.500000000000018 30.04485329298715
7.530000000000018 30.15090927378818
7.560000000000018 30.25639203588783
7.5900000000000185 30.361295528775944
7.620000000000019 30.465615632118357
7.650000000000019 30.569350753756325
7.680000000000019 30.672502091164947
7.7100000000000195 30.775073552268307
7.74000000000002 30.877071369838298
7.77000000000002 30.97850348115892
7.80000000000002 31.079378763907595
7.8300000000000205 31.179706231856365
7.860000000000021 31.279494291543127
7.890000000000021 31.37875014621596
7.920000000000021 31.47747940901614
7.9500000000000215 31.575685955201937
7.980000000000022 31.67337201224181
8.010000000000021 31.770538457981672
8.04000000000002 31.867185272034693
8.07000000000002 31.96331207330814
8.10000000000002 32.05891866732036
8.130000000000019 32.15400553444927
8.160000000000018 32.248574202768964
8.190000000000017 32.34262746685406
8.220000000000017 32.436169438435485
8.250000000000016 32.52920543335622
8.280000000000015 32.62174171721645
8.310000000000015 32.71378515387776
8.340000000000014 32.8053428074891
8.370000000000013 32.89642155231252
8.400000000000013 32.987027737404745
8.430000000000012 33.07716694410368
8.460000000000012 33.166843857198444
8.49000000000001 33.256062258281496
8.52000000000001 33.34482513057992
8.55000000000001 33.43313485226362
8.580000000000009 33.52099344715645
8.610000000000008 33.608402856913465
8.640000000000008 33.6953651978047
8.670000000000007 33.78188297095454
8.700000000000006 33.867959203742004
8.730000000000006 33.95359751107223
8.760000000000005 34.038802078939646
8.790000000000004 34.123577567390846
8.820000000000004 34.20792895913456
8.850000000000003 34.29186137433012
8.880000000000003 34.375379876777224
8.910000000000002 34.45848929463462
8.940000000000001 34.54119407688677
8.97 34.62349819945729
9.0 34.70540513473293
9.03 34.78691787791614
9.059999999999999 34.86803902645021
9.089999999999998 34.94877090034905
9.119999999999997 35.029115683946614
9.149999999999997 35.10907556690367
9.179999999999996 35.18865286707344
9.209999999999996 35.26785012367113
9.239999999999995 35.346670152531466
9.269999999999994 35.42511605558414
9.299999999999994 35.50319118655557
9.329999999999993 35.58089908415495
9.359999999999992 35.65824338126478
9.389999999999992 35.73522770316417
9.419999999999991 35.811855569184985
9.44999999999999 35.88813031314654
9.47999999999999 35.96405503037752
9.50999999999999 36.03963256088199
9.539999999999988 36.114865503063236
9.569999999999988 36.18975625863064
9.599999999999987 36.26430708614693
9.629999999999987 36.33852016396731
9.659999999999986 36.41239766109706
9.689999999999985 36.48594180772042
9.719999999999985 36.55915495585062
9.749999999999984 36.63203961791438
9.779999999999983 36.70459847010015
9.809999999999983 36.77683433673954
9.839999999999982 36.84875016189598
9.869999999999981 36.920348971625785
9.89999999999998 36.99163383171958
9.92999999999998 37.06260780127849
9.95999999999998 37.13327388964508
9.989999999999979 37.20363502013044
10.019999999999978 37.266439846041266
10.049999999999978 37.30988212978797
10.079999999999977 37.3236425060793
10.109999999999976 37.301633330010596
10.139999999999976 37.24311653969491
10.169999999999975 37.15274660560204
10.199999999999974 37.039726260233074
10.229999999999974 36.91625697033248
10.259999999999973 36.795551141501626
10.289999999999973 36.68974039056366
10.319999999999972 36.60802532402923
10.349999999999971 36.55536086823517
10.37999999999997 36.53187070700702
10.40999999999997 36.533056007513196
10.43999999999997 36.550730530875626
10.469999999999969 36.57449807542853
10.499999999999968 36.59350712167691
10.529999999999967 36.598183754413384
10.559999999999967 36.58166277515202
10.589999999999966 36.54070255065999
10.619999999999965 36.47596900974674
10.649999999999965 36.39168671489091
10.679999999999964 36.29475890918414
10.709999999999964 36.193535545348645
10.739999999999963 36.0964480092422
10.769999999999962 36.010729620479516
10.799999999999962 35.9414077142
10.829999999999961 35.89069566280459
10.85999999999996 35.85784425239679
10.88999999999996 35.839440740429445
10.919999999999959 35.83008094980933
10.949999999999958 35.82329162985743
10.979999999999958 35.81255208725014
11.009999999999957 35.79225878287675
11.039999999999957 35.75849426756198
11.069999999999956 35.70949906766241
11.099999999999955 35.64579597165158
11.129999999999955 35.56997122948842
11.159999999999954 35.4861684538246
11.189999999999953 35.399389729110865
11.219999999999953 35.31471972341379
11.249999999999952 35.23659091693964
11.279999999999951 35.168192789228925
11.30999999999995 35.11109906491756
11.33999999999995 35.06515050070761
11.36999999999995 35.02859173662074
11.399999999999949 34.99842535785291
11.429999999999948 34.97091822878275
11.459999999999948 34.94217813868694
11.489999999999947 34.90871435082422
11.519999999999946 34.867903569176676
11.549999999999946 34.8183015970784
11.579999999999945 34.75976715993277
11.609999999999944 34.693393685854495
11.639999999999944 34.62127277217517
11.669999999999943 34.54613521752372
11.699999999999942 34.4709294308288
11.729999999999942 34.398400983810916
11.759999999999941 34.330731619015914
11.78999999999994 34.2692828731164
11.81999999999994 34.21447124570982
11.84999999999994 34.16578158945518
11.879999999999939 34.12190602839694
11.909999999999938 34.08097976551128
11.939999999999937 34.04087437478236
11.969999999999937 33.99950447714109
11.999999999999936 33.95510541314456
12.029999999999935 33.9064467024347
12.059999999999935 33.8529575240603
12.089999999999934 33.79475420233172
12.119999999999933 33.73257372817411
12.149999999999933 33.667629720824145
12.179999999999932 33.601416303934485
12.209999999999932 33.5354902231492
12.239999999999931 33.471261913676805
12.26999999999993 33.40982236962849
12.29999999999993 33.35182566464043
12.329999999999929 33.29743795478957
12.359999999999928 33.24635419219116
12.389999999999928 33.19787485810765
12.419999999999927 33.15102787322858
12.449999999999926 33.10471623485698
12.479999999999926 33.05787021374032
12.509999999999925 33.00958401457141
12.539999999999925 32.95922049996041
12.569999999999924 32.90647295227488
12.599999999999923 32.85137933680167
12.629999999999923 32.79429101544527
12.659999999999922 32.73580360590318
12.689999999999921 32.67666194555425
12.71999999999992 32.617653468565855
12.74999999999992 32.559504627583166
12.77999999999992 32.5027933795226
12.809999999999919 32.44788760111366
12.839999999999918 32.39491521498965
12.869999999999918 32.343767247295474
12.899999999999917 32.29413076006362
12.929999999999916 32.24554507366011
12.959999999999916 32.19747225834468
12.989999999999915 32.14937180691557
13.019999999999914 32.10076968235449
13.049999999999914 32.05131341474211
13.079999999999913 32.00080737236287
13.109999999999912 31.94922531010707
13.139999999999912 31.896700425726806
13.169999999999911 31.843495999316527
13.19999999999991 31.78996190742152
13.22999999999991 31.736483664033972
13.25999999999991 31.683431042312222
13.289999999999909 31.631112815442226
13.319999999999908 31.57974284240801
13.349999999999907 31.52942086108488
13.379999999999907 31.480129225269334
13.409999999999906 31.43174470825666
13.439999999999905 31.3840626555913
13.469999999999905 31.33682944473085
13.499999999999904 31.289778486724842
13.529999999999903 31.242664927375678
13.559999999999903 31.19529476236465
13.589999999999902 31.147545149602156
13.619999999999902 31.099374053554186
13.6499999999999 31.050818886636215
13.6799999999999 31.001985210460926
13.7099999999999 30.95302773650852
13.739999999999899 30.90412667211123
13.769999999999898 30.855462782399194
13.799999999999898 30.80719443183474
13.829999999999897 30.759439349464966
13.859999999999896 30.712263010714818
13.889999999999896 30.6656745660361
13.919999999999895 30.619630202856396
13.949999999999894 30.574042896750917
13.979999999999894 30.52879679159343
14.009999999999893 30.48376402989706
14.039999999999893 30.438821706627625
14.069999999999892 30.393866767127406
14.099999999999891 30.34882714496421
14.12999999999989 30.30366804777642
14.15999999999989 30.25839299005426
14.18999999999989 30.213039902292707
14.219999999999889 30.16767321292869
14.249999999999888 30.122373198408138
14.279999999999887 30.077224185441647
14.309999999999887 30.03230322511086
14.339999999999886 29.987670646416458
14.369999999999886 29.943363529574043
14.399999999999885 29.899392682921523
14.429999999999884 29.855743213970296
14.459999999999884 29.81237831154698
14.489999999999883 29.76924549756483
14.519999999999882 29.726284355864486
14.549999999999882 29.68343463127134
14.579999999999881 29.640643625754322
14.60999999999988 29.597872004434112
14.63999999999988 29.55509741033972
14.66999999999988 29.512315624384986
14.699999999999878 29.469539332664482
14.729999999999878 29.426794856518022
14.759999999999877 29.38411742917131
14.789999999999877 29.341545743734482
14.819999999999876 29.29911651766229
14.849999999999875 29.256859765157305
14.879999999999875 29.214795325756725
14.909999999999874 29.172930991564854
14.939999999999873 29.131262330960578
14.969999999999873 29.0897740790743
14.999999999999872 29.048442811495892
15.029999999999871 29.007240463771122
15.05999999999987 28.96613816769715
15.08999999999987 28.925109902413762
15.11999999999987 28.884135493880514
15.149999999999869 28.843202624937422
15.179999999999868 28.8023076677795
15.209999999999868 28.761455322968306
15.239999999999867 28.720657207306733
15.269999999999866 28.679929673597762
15.299999999999866 28.639291210645357
15.329999999999865 28.59875979676353
15.359999999999864 28.55835054696085
15.389999999999864 28.518073920734558
15.419999999999863 28.477934679940212
15.449999999999863 28.437931647943614
15.479999999999862 28.39805823578783
15.509999999999861 28.35830362088638
15.53999999999986 28.31865438033818
15.56999999999986 28.27909632691808
15.59999999999986 28.23961631762593
15.629999999999859 28.200203813991656
15.659999999999858 28.16085200033665
15.689999999999857 28.121558353955983
15.719999999999857 28.08232463100882
15.749999999999856 28.04315632452903
15.779999999999855 28.004061681168857
15.809999999999855 27.965050415872597
15.839999999999854 27.926132314224088
15.869999999999854 27.88731592570928
15.899999999999853 27.848607532165072
15.929999999999852 27.810010478168913
15.959999999999852 27.771524937043065
15.989999999999851 27.73314812832105
16.01999999999985 27.694874907512656
16.04999999999985 27.656698610472702
16.079999999999853 27.618612025076033
16.109999999999854 27.580608346161107
16.139999999999855 27.542681990986722
16.169999999999856 27.504829177126233
16.199999999999857 27.467048223582253
16.22999999999986 27.429339565636525
16.25999999999986 27.391705490436202
16.28999999999986 27.354149649186326
16.31999999999986 27.31667642188922
16.349999999999863 27.279290210828876
