# Results for "element" with Id # 2683109 for search config "initial" at position: x0: -250; y0: 0; z0: 193.965517241
# time VELOCITY_X
0.03 0.007191918367653729
0.06 0.030137923584328916
0.09 0.07633988307980899
0.12 0.15108226351279733
0.15 0.25687769881257605
0.18 0.39330176771848113
0.21 0.5571373209680629
0.24 0.7427778756734498
0.27 0.9428367664369746
0.30000000000000004 1.148898403612931
0.33000000000000007 1.3523387550168176
0.3600000000000001 1.5451376104053773
0.3900000000000001 1.720606955128285
0.42000000000000015 1.8739685566528466
0.4500000000000002 2.00272946785376
0.4800000000000002 2.106825198433336
0.5100000000000002 2.1885245411728333
0.5400000000000003 2.2521145390821338
0.5700000000000003 2.3034057866005577
0.6000000000000003 2.349114598523605
0.6300000000000003 2.39618781334647
0.6600000000000004 2.4511376452815457
0.6900000000000004 2.5194485903763173
0.7200000000000004 2.6051074943248036
0.7500000000000004 2.7102932612981827
0.7800000000000005 2.8352463824040726
0.8100000000000005 2.9783220359987723
0.8400000000000005 3.1362150781569125
0.8700000000000006 3.304331460808152
0.9000000000000006 3.4772689388470557
0.9300000000000006 3.649360881351863
0.9600000000000006 3.815231295907706
0.9900000000000007 3.9703078005682144
1.0200000000000007 4.111242917761765
1.0500000000000007 4.236203083647369
1.0800000000000007 4.344998604352389
1.1100000000000008 4.4390449412035835
1.1400000000000008 4.5211639975762
1.1700000000000008 4.595251028561063
1.2000000000000008 4.665846150181512
1.2300000000000009 4.737657693310135
1.260000000000001 4.815087222373977
1.290000000000001 4.901803252514696
1.320000000000001 5.000403471819794
1.350000000000001 5.11219493944793
1.380000000000001 5.23710943800716
1.410000000000001 5.373758049014625
1.440000000000001 5.519615957679699
1.470000000000001 5.671316305764317
1.500000000000001 5.825021519379051
1.5300000000000011 5.976832891158802
1.5600000000000012 6.123195303311447
1.5900000000000012 6.2612546391366815
1.6200000000000012 6.389130774839405
1.6500000000000012 6.506078844024419
1.6800000000000013 6.612524434163994
1.7100000000000013 6.709972917468098
1.7400000000000013 6.800807249706473
1.7700000000000014 6.888000485229902
1.8000000000000014 6.974777527276723
1.8300000000000014 7.064264542948804
1.8600000000000014 7.159163858506328
1.8900000000000015 7.261487564475172
1.9200000000000015 7.372375278902055
1.9500000000000015 7.492011611574052
1.9800000000000015 7.619647946250032
2.0100000000000016 7.753722206075041
2.0400000000000014 7.892060303758298
2.070000000000001 8.03213487971917
2.100000000000001 8.171351514707643
2.130000000000001 8.307330420515065
2.1600000000000006 8.438153026884091
2.1900000000000004 8.562547687929897
2.22 8.67999647455338
2.25 8.790754640381937
2.28 8.895784627952494
2.3099999999999996 8.996616089669093
2.3399999999999994 9.095151163721606
2.369999999999999 9.193439322836962
2.399999999999999 9.293448076975753
2.429999999999999 9.396854723117102
2.4599999999999986 9.504880533154617
2.4899999999999984 9.618182980989085
2.5199999999999982 9.736814508147337
2.549999999999998 9.860248799477148
2.579999999999998 9.98746831087043
2.6099999999999977 10.117100564513873
2.6399999999999975 10.2475860645736
2.6699999999999973 10.377358027147352
2.699999999999997 10.505013684589478
2.729999999999997 10.6294587426333
2.7599999999999967 10.750010374649847
2.7899999999999965 10.86644943588135
2.8199999999999963 10.9790187488614
2.849999999999996 11.088370527513584
2.879999999999996 11.195471565103084
2.9099999999999957 11.301479062149195
2.9399999999999955 11.407602512953147
2.9699999999999953 11.514967712390959
2.999999999999995 11.624497765931615
3.029999999999995 11.736823227090486
3.0599999999999947 11.85222959859678
3.0899999999999945 11.9706458743746
3.1199999999999943 12.091673099358506
3.149999999999994 12.214647596226335
3.179999999999994 12.33872996562626
3.2099999999999937 12.463008572866395
3.2399999999999936 12.586605188702109
3.2699999999999934 12.708770836444817
3.299999999999993 12.828961609576746
3.329999999999993 12.9468870415371
3.3599999999999928 13.062527119121473
3.3899999999999926 13.176117837016719
3.4199999999999924 13.288108795032162
3.449999999999992 13.399099327508289
3.479999999999992 13.509761719800085
3.509999999999992 13.620761009993842
3.5399999999999916 13.732680671501166
3.5699999999999914 13.845962222100315
3.599999999999991 13.960864711401998
3.629999999999991 14.077447418032556
3.659999999999991 14.195576251511365
3.6899999999999906 14.31495163369408
3.7199999999999904 14.435153330620928
3.7499999999999902 14.555696058232808
3.77999999999999 14.676088831030938
3.80999999999999 14.795891030571934
3.8399999999999896 14.91475898432789
3.8699999999999894 15.03247833070766
3.8999999999999893 15.148979399930179
3.929999999999989 15.264334983757976
3.959999999999989 15.37874195609138
3.9899999999999887 15.49248997971346
4.019999999999989 15.605921812000357
4.049999999999989 15.719390375998287
4.079999999999989 15.8332177706579
4.10999999999999 15.947660795491977
4.13999999999999 16.0628864799965
4.16999999999999 16.178959698076206
4.19999999999999 16.295843400153085
4.229999999999991 16.413410505995287
4.259999999999991 16.531465219826305
4.289999999999991 16.649770612032235
4.319999999999991 16.768078820488864
4.349999999999992 16.886160194039423
4.379999999999992 17.003828099499582
4.409999999999992 17.12095686541725
4.439999999999992 17.23749132550654
4.469999999999993 17.35344751867718
4.499999999999993 17.46890516440668
4.529999999999993 17.583993434465768
4.559999999999993 17.698872200478537
4.589999999999994 17.813711282631562
4.619999999999994 17.92867024942853
4.649999999999994 18.043881042124493
4.679999999999994 18.159435187122426
4.709999999999995 18.275376680871126
4.739999999999995 18.39170088994264
4.769999999999995 18.50835908937981
4.799999999999995 18.62526765032026
4.829999999999996 18.74232043339847
4.859999999999996 18.859402706375175
4.889999999999996 18.976404866762167
4.919999999999996 19.09323442413386
4.949999999999997 19.20982502339357
4.979999999999997 19.326141732298318
5.009999999999997 19.442182310541973
5.039999999999997 19.55797466265293
5.069999999999998 19.67357109117113
5.099999999999998 19.789040272155333
5.129999999999998 19.904458062937692
5.159999999999998 20.01989827933827
5.189999999999999 20.13542449025561
5.219999999999999 20.2510836673705
5.249999999999999 20.366902248812963
5.279999999999999 20.482884851827055
5.31 20.599015552151513
5.34 20.71526136886888
5.37 20.83157737733127
5.4 20.94791273607793
5.430000000000001 21.06421687656639
5.460000000000001 21.1804451431058
5.490000000000001 21.296563296812657
5.520000000000001 21.412550472611652
5.550000000000002 21.528400384257015
5.580000000000002 21.644120785237945
5.610000000000002 21.75973138984037
5.640000000000002 21.875260614711994
5.670000000000003 21.990741601832326
5.700000000000003 22.10620802951869
5.730000000000003 22.2216902006369
5.760000000000003 22.33721182777125
5.790000000000004 22.452787825120076
5.820000000000004 22.568423275304298
5.850000000000004 22.684113595761794
5.880000000000004 22.799845792043353
5.910000000000005 22.91560056993476
5.940000000000005 23.031354999892045
5.970000000000005 23.147085387591655
6.000000000000005 23.262770008829705
6.030000000000006 23.378391404278503
6.060000000000006 23.493938004256464
6.090000000000006 23.609404949627354
6.120000000000006 23.724794078099507
6.150000000000007 23.840113141155832
6.180000000000007 23.955374400892705
6.210000000000007 24.070592816994388
6.240000000000007 24.185784065640537
6.270000000000008 24.300962633692556
6.300000000000008 24.41614020241647
6.330000000000008 24.53132448523042
6.360000000000008 24.646518620278076
6.390000000000009 24.761721146046305
6.420000000000009 24.87692651802022
6.450000000000009 24.99212606198159
6.480000000000009 25.10730922108181
6.51000000000001 25.22246492843047
6.54000000000001 25.337582930069544
6.57000000000001 25.45265490896324
6.60000000000001 25.567675297086772
6.6300000000000106 25.682641701610894
6.660000000000011 25.79755492486578
6.690000000000011 25.912418610075033
6.720000000000011 26.02723858309085
6.7500000000000115 26.142021991576833
6.780000000000012 26.256776361689397
6.810000000000012 26.371508687865497
6.840000000000012 26.48622466361257
6.8700000000000125 26.60092813261207
6.900000000000013 26.71562080577965
6.930000000000013 26.830302260183863
6.960000000000013 26.944970192449034
6.9900000000000135 27.05962087380465
7.020000000000014 27.174249738257284
7.050000000000014 27.28885202154073
7.080000000000014 27.403423373667323
7.1100000000000145 27.517960374758157
7.140000000000015 27.63246089906598
7.170000000000015 27.746924299368587
7.200000000000015 27.861351403648452
7.2300000000000155 27.975744340371513
7.260000000000016 28.090106227674436
7.290000000000016 28.20444077485942
7.320000000000016 28.318751849478886
7.3500000000000165 28.433043062875658
7.380000000000017 28.547317421921758
7.410000000000017 28.66157708257389
7.440000000000017 28.775823226134634
7.4700000000000175 28.890056061911118
7.500000000000018 29.004274944813204
7.530000000000018 29.118478584718776
7.560000000000018 29.232665315338842
7.5900000000000185 29.346833385671815
7.620000000000019 29.460981238073273
7.650000000000019 29.57510774051907
7.680000000000019 29.689212349334007
7.7100000000000195 29.80329518952556
7.74000000000002 29.917357049448714
7.77000000000002 30.03139929785067
7.80000000000002 30.145423738678055
7.8300000000000205 30.259432426104436
7.860000000000021 30.373427464048547
7.890000000000021 30.48741081442811
7.920000000000021 30.601384136206686
7.9500000000000215 30.715348671117905
7.980000000000022 30.82930518578216
8.010000000000021 30.943253971753727
8.04000000000002 31.057194898828357
8.07000000000002 31.171127511976017
8.10000000000002 31.285051155731523
8.130000000000019 31.398965109416046
8.160000000000018 31.512868716568804
8.190000000000017 31.626761493409937
8.220000000000017 31.74064320624216
8.250000000000016 31.854513910623744
8.280000000000015 31.96837394934456
8.310000000000015 32.08222391291712
8.340000000000014 32.19606457011648
8.370000000000013 32.30989677995806
8.400000000000013 32.423721396366076
8.430000000000012 32.537539178182115
8.460000000000012 32.65135071390678
8.49000000000001 32.76515636992628
8.52000000000001 32.87895626491129
8.55000000000001 32.99275027111477
8.580000000000009 33.1065380409879
8.610000000000008 33.220319053262706
8.640000000000008 33.33409267211232
8.670000000000007 33.447858212363414
8.700000000000006 33.5616150027013
8.730000000000006 33.67536244021038
8.760000000000005 33.78910003215821
8.790000000000004 33.90282741572031
8.820000000000004 34.0165443593811
8.850000000000003 34.13025074574986
8.880000000000003 34.2439465388018
8.910000000000002 34.35763174007224
8.940000000000001 34.471306340051385
8.97 34.58497027013698
9.0 34.698623362956766
9.03 34.81226532297477
9.059999999999999 34.925895712763115
9.089999999999998 35.03951395562558
9.119999999999997 35.15311935248049
9.149999999999997 35.26671110820257
9.179999999999996 35.38028836418123
9.209999999999996 35.49385023453646
9.239999999999995 35.60739584277715
9.269999999999994 35.720924352094585
9.299999999999994 35.83443498492031
9.329999999999993 35.947927033588414
9.359999999999992 36.06139985899133
9.389999999999992 36.17485287858911
9.419999999999991 36.28828554679585
9.44999999999999 36.401697331862856
9.47999999999999 36.51508769226779
9.50999999999999 36.62845605811294
9.539999999999988 36.74180181787919
9.569999999999988 36.855124313182856
9.599999999999987 36.968422834237636
9.629999999999987 37.08169661976328
9.659999999999986 37.19494486580592
9.689999999999985 37.308166743892926
9.719999999999985 37.42136142372679
9.749999999999984 37.534528095321974
9.779999999999983 37.64766598245491
9.809999999999983 37.76077435517979
9.839999999999982 37.873852540063396
9.869999999999981 37.98689992687464
9.89999999999998 38.09991597058417
9.92999999999998 38.212900186614064
9.95999999999998 38.325852139596705
9.989999999999979 38.43877142687637
10.019999999999978 38.544049438774465
10.049999999999978 38.62945919009216
10.079999999999977 38.684410447874754
10.109999999999976 38.7027316497762
10.139999999999976 38.683776691073675
10.169999999999975 38.63236362384731
10.199999999999974 38.557799004159016
10.229999999999974 38.47223388032573
10.259999999999973 38.388656647411054
10.289999999999973 38.31886514749423
10.319999999999972 38.27174445945775
10.349999999999971 38.25210690273519
10.37999999999997 38.26024274413918
10.40999999999997 38.29220541648863
10.43999999999997 38.34073550917585
10.469999999999969 38.39663185342635
10.499999999999968 38.450319345991474
10.529999999999967 38.49334903368746
10.559999999999967 38.519596960453285
10.589999999999966 38.52599608463669
10.619999999999965 38.51272686925723
10.649999999999965 38.48288776945112
10.679999999999964 38.44174943856814
10.709999999999964 38.395752366372925
10.739999999999963 38.351430272885196
10.769999999999962 38.31443169279689
10.799999999999962 38.288776525097376
10.829999999999961 38.276432299213596
10.85999999999996 38.27723767946416
10.88999999999996 38.28914630387207
10.919999999999959 38.30872042549879
10.949999999999958 38.331775153299546
10.979999999999958 38.35406267663479
11.009999999999957 38.371891647054824
11.039999999999957 38.38259765204721
11.069999999999956 38.38481194273298
11.099999999999955 38.378511816131926
11.129999999999955 38.36487055274788
11.159999999999954 38.34595300485669
11.189999999999953 38.324320274449796
11.219999999999953 38.30261226798781
11.249999999999952 38.283171105036615
11.279999999999951 38.26775382509758
11.30999999999995 38.25736321562266
11.33999999999995 38.25220468910173
11.36999999999995 38.25175812271413
11.399999999999949 38.254939187373516
11.429999999999948 38.26031574998376
11.459999999999948 38.26634227019017
11.489999999999947 38.27157798619316
11.519999999999946 38.27486180082636
11.549999999999946 38.275426648969116
11.579999999999945 38.272946884010494
11.609999999999944 38.267522205750154
11.639999999999944 38.25960958362627
11.669999999999943 38.24991960425564
11.699999999999942 38.23929567972081
11.729999999999942 38.22859367926857
11.759999999999941 38.21857655510382
11.78999999999994 38.20983431456517
11.81999999999994 38.20273497885579
11.84999999999994 38.19740771975155
11.879999999999939 38.19375559835417
11.909999999999938 38.19149254512089
11.939999999999937 38.190197440308665
11.969999999999937 38.189377316912854
11.999999999999936 38.188531803003926
12.029999999999935 38.18721167449844
12.059999999999935 38.18506575779306
12.089999999999934 38.18187217638324
12.119999999999933 38.177551937886264
12.149999999999933 38.172164910239516
12.179999999999932 38.1658901116782
12.209999999999932 38.15899381158991
12.239999999999931 38.15179007240085
12.26999999999993 38.14459886223777
12.29999999999993 38.137706832151736
12.329999999999929 38.1313352018688
12.359999999999928 38.125618085494835
12.389999999999928 38.1205931296829
12.419999999999927 38.11620472694199
12.449999999999926 38.11231851086837
12.479999999999926 38.10874451451136
12.509999999999925 38.10526543526833
12.539999999999925 38.10166606832911
12.569999999999924 38.09776005895932
12.599999999999923 38.09341078069649
12.629999999999923 38.088544126788655
12.659999999999922 38.083152248479
12.689999999999921 38.07728852541575
12.71999999999992 38.0710551720953
12.74999999999992 38.06458573402849
12.77999999999992 38.05802518286702
12.809999999999919 38.051510377514376
12.839999999999918 38.04515338452268
12.869999999999918 38.03902952741841
12.899999999999917 38.03317125200947
12.929999999999916 38.027568052148744
12.959999999999916 38.022171880940355
12.989999999999915 38.01690683256785
13.019999999999914 38.0116814511117
13.049999999999914 38.006401835644226
13.079999999999913 38.00098379727588
13.109999999999912 37.99536261261917
13.139999999999912 37.989499370600534
13.169999999999911 37.983383453389244
13.19999999999991 37.977031220317514
13.22999999999991 37.970481427456846
13.25999999999991 37.963788269354524
13.289999999999909 37.95701314440535
13.319999999999908 37.95021629076869
13.349999999999907 37.9434493453593
13.379999999999907 37.93674967148655
13.409999999999906 37.93013700968188
13.439999999999905 37.923612657958465
13.469999999999905 37.91716106548269
13.499999999999904 37.910753422233704
13.529999999999903 37.904352608057046
13.559999999999903 37.897918742760076
13.589999999999902 37.89141458654738
13.619999999999902 37.88481011905675
13.6499999999999 37.87808580086016
13.6799999999999 37.871234214389695
13.7099999999999 37.86426001653251
13.739999999999899 37.85717835879123
13.769999999999898 37.85001210431901
13.799999999999898 37.842788294944654
13.829999999999897 37.83553438905231
13.859999999999896 37.82827474988867
13.889999999999896 37.82102781398518
13.919999999999895 37.81380424231559
13.949999999999894 37.80660620767772
13.979999999999894 37.79942781945911
14.009999999999893 37.79225655505992
14.039999999999893 37.78507544582348
14.069999999999892 37.777865655826616
14.099999999999891 37.770609100193795
14.12999999999989 37.76329076855623
14.15999999999989 37.755900465546375
14.18999999999989 37.748433793099395
14.219999999999889 37.74089230141696
14.249999999999888 37.73328283000485
14.279999999999887 37.72561618726607
14.309999999999887 37.71790541385811
14.339999999999886 37.71016390153203
14.369999999999886 37.702403610772905
14.399999999999885 37.694633606617714
14.429999999999884 37.68685908154961
14.459999999999884 37.67908094614569
14.489999999999883 37.6712960024174
14.519999999999882 37.66349764404955
14.549999999999882 37.65567695205853
14.579999999999881 37.647823999626425
14.60999999999988 37.63992918361034
14.63999999999988 37.63198441907679
14.66999999999988 37.62398405984281
14.699999999999878 37.61592544412955
14.729999999999878 37.607809017270306
14.759999999999877 37.59963804634215
14.789999999999877 37.59141799247734
14.819999999999876 37.583155640695104
14.849999999999875 37.57485811668018
14.879999999999875 37.56653193000057
14.909999999999874 37.55818216553694
14.939999999999873 37.549811911182985
14.969999999999873 37.541421973394236
14.999999999999872 37.533010910803796
15.029999999999871 37.524575366213895
15.05999999999987 37.51611062456579
15.08999999999987 37.507611319411936
15.11999999999987 37.499072179873764
15.149999999999869 37.490488714107954
15.179999999999868 37.48185773450092
15.209999999999868 37.47317767023652
15.239999999999867 37.46444864835147
15.269999999999866 37.45567235100979
15.299999999999866 37.446851682775616
15.329999999999865 37.437990311393136
15.359999999999864 37.42909214969942
15.389999999999864 37.42016084660061
15.419999999999863 37.411199355996466
15.449999999999863 37.402209614417174
15.479999999999862 37.393192358730616
15.509999999999861 37.38414710166168
15.53999999999986 37.37507226341958
15.56999999999986 37.36596542499605
15.59999999999986 37.35682368335362
15.629999999999859 37.34764406349903
15.659999999999858 37.338423925966424
15.689999999999857 37.32916131986758
15.719999999999857 37.31985523210411
15.749999999999856 37.31050570458834
15.779999999999855 37.30111380103587
15.809999999999855 37.29168142319661
15.839999999999854 37.28221101573267
15.869999999999854 37.27270521567429
15.899999999999853 37.263166510559074
15.929999999999852 37.253596932639724
15.959999999999852 37.243997842712524
15.989999999999851 37.23436982875226
16.01999999999985 37.2247127083192
16.04999999999985 37.21502561132822
16.079999999999853 37.20530712217559
16.109999999999854 37.19555546079883
16.139999999999855 37.18576868091528
16.169999999999856 37.17594486380534
16.199999999999857 37.166082293869536
16.22999999999986 37.156179605374135
16.25999999999986 37.14623586833923
16.28999999999986 37.136250603210385
16.31999999999986 37.12622371991449
16.349999999999863 37.11615538973603
