# Results for "element" with Id # 2711872 for search config "initial" at position: x0: -250; y0: 0; z0: 12.9310344828
# time VELOCITY_X
0.03 0.006453393407923407
0.06 0.028547350283262073
0.09 0.07477930223886936
0.12 0.15139413706115779
0.15 0.26164268516781053
0.18 0.4055300734458358
0.21 0.5799348374296773
0.24 0.7790312049850447
0.27 0.9949492516822667
0.30000000000000004 1.2185981390546043
0.33000000000000007 1.4405692403191916
0.3600000000000001 1.6520328727967506
0.3900000000000001 1.8455457510615272
0.42000000000000015 2.0156971382750606
0.4500000000000002 2.159538079928021
0.4800000000000002 2.27676026564425
0.5100000000000002 2.3696160504364223
0.5400000000000003 2.4425968051547415
0.5700000000000003 2.50191017727314
0.6000000000000003 2.554815291227196
0.6300000000000003 2.60888642529734
0.6600000000000004 2.6712791168223102
0.6900000000000004 2.748068224357215
0.7200000000000004 2.843716348057759
0.7500000000000004 2.9607151996143894
0.7800000000000005 3.099424325235444
0.8100000000000005 3.2581130630653243
0.8400000000000005 3.4331942661729697
0.8700000000000006 3.6196229776849105
0.9000000000000006 3.8114204069981144
0.9300000000000006 4.002273469904738
0.9600000000000006 4.186153536221954
0.9900000000000007 4.357895604624998
1.0200000000000007 4.513682029400793
1.0500000000000007 4.651383567832459
1.0800000000000007 4.770724751307224
1.1100000000000008 4.873259095586773
1.1400000000000008 4.962160209016113
1.1700000000000008 5.04185467928403
1.2000000000000008 5.117538926363201
1.2300000000000009 5.194633088947564
1.260000000000001 5.278229334397302
1.290000000000001 5.37259001142545
1.320000000000001 5.480743595332022
1.350000000000001 5.604214966911463
1.380000000000001 5.742912604257977
1.410000000000001 5.89518003955531
1.440000000000001 6.058003486960837
1.470000000000001 6.2273528072721795
1.500000000000001 6.398620051437392
1.5300000000000011 6.567109797804868
1.5600000000000012 6.728529771700918
1.5900000000000012 6.879429766133523
1.6200000000000012 7.017542296915726
1.6500000000000012 7.141989427094424
1.6800000000000013 7.253335584034993
1.7100000000000013 7.353484003332445
1.7400000000000013 7.445432268011004
1.7700000000000014 7.53291791105004
1.8000000000000014 7.619996243425051
1.8300000000000014 7.710598416594674
1.8600000000000014 7.808117802978291
1.8900000000000015 7.915067712214978
1.9200000000000015 8.032844116571413
1.9500000000000015 8.161614794286505
1.9800000000000015 8.300342476464813
2.0100000000000016 8.446935505643104
2.0400000000000014 8.598506433017018
2.070000000000001 8.751708051443613
2.100000000000001 8.903108693320197
2.130000000000001 9.049564995666367
2.1600000000000006 9.188551389372638
2.1900000000000004 9.318411165455911
2.22 9.438503675421455
2.25 9.549234763422387
2.28 9.651971283198822
2.3099999999999996 9.748853759371702
2.3399999999999994 9.842532212875309
2.369999999999999 9.93585765430918
2.399999999999999 10.031565037992971
2.429999999999999 10.131982566878992
2.4599999999999986 10.238797520879418
2.4899999999999984 10.352901206368102
2.5199999999999982 10.474326098030705
2.549999999999998 10.602277926532853
2.579999999999998 10.73525537979512
2.6099999999999977 10.871241148164021
2.6399999999999975 11.007941080971609
2.6699999999999973 11.143043868460452
2.699999999999997 11.274472327892
2.729999999999997 11.400599211121525
2.7599999999999967 11.520405236067488
2.7899999999999965 11.633564178083844
2.8199999999999963 11.740448546794987
2.849999999999996 11.842058488287574
2.879999999999996 11.939885008520836
2.9099999999999957 12.035725438692408
2.9399999999999955 12.13147352857208
2.9699999999999953 12.228908284966128
2.999999999999995 12.329504660064813
3.029999999999995 12.434285708185193
3.0599999999999947 12.54373044137116
3.0899999999999945 12.657744987121763
3.1199999999999943 12.775697512652755
3.149999999999994 12.896510501274324
3.179999999999994 13.018798015208011
3.2099999999999937 13.141031137105562
3.2399999999999936 13.26171228607225
3.2699999999999934 13.379538790223334
3.299999999999993 13.493537965780739
3.329999999999993 13.603159784052913
3.3599999999999928 13.708318485622941
3.3899999999999926 13.809380608365684
3.4199999999999924 13.907103076476005
3.449999999999992 14.0025304999903
3.479999999999992 14.09686504980598
3.509999999999992 14.191324755918792
3.5399999999999916 14.28700664283939
3.5699999999999914 14.384769798189303
3.599999999999991 14.485150515282355
3.629999999999991 14.588317504101472
3.659999999999991 14.694070327995703
3.6899999999999906 14.801879254025586
3.7199999999999904 14.91096015474703
3.7499999999999902 15.020374452081299
3.77999999999999 15.129141705554837
3.80999999999999 15.236351552833636
3.8399999999999896 15.341262353515122
3.8699999999999894 15.443375953503546
3.8999999999999893 15.54248119832861
3.929999999999989 15.638662739546955
3.959999999999989 15.732275832041319
3.9899999999999887 15.823891697490003
4.019999999999989 15.914221187869837
4.049999999999989 16.004026579390803
4.079999999999989 16.09403217814138
4.10999999999999 16.18484399187358
4.13999999999999 16.27688714272404
4.16999999999999 16.370367209536923
4.19999999999999 16.46525863002087
4.229999999999991 16.561320048858548
4.259999999999991 16.658133423176512
4.289999999999991 16.755161155190557
4.319999999999991 16.851813757202496
4.349999999999992 16.947519737587122
4.379999999999992 17.041789574834937
4.409999999999992 17.1342667567385
4.439999999999992 17.224760727835754
4.469999999999993 17.313258957501954
4.499999999999993 17.399917911154674
4.529999999999993 17.48503515997713
4.559999999999993 17.569006926528697
4.589999999999994 17.65227680377604
4.619999999999994 17.735282074154195
4.649999999999994 17.81840395512229
4.679999999999994 17.90192727397187
4.709999999999995 17.986013657348302
4.739999999999995 18.070690518501372
4.769999999999995 18.155856165375578
4.799999999999995 18.24129947502997
4.829999999999996 18.32673098379601
4.859999999999996 18.41182111666392
4.889999999999996 18.496240702859552
4.919999999999996 18.57969895407932
4.949999999999997 18.661974660812277
4.979999999999997 18.74293740758783
5.009999999999997 18.822556966654503
5.039999999999997 18.900900521894474
5.069999999999998 18.97811881045334
5.099999999999998 19.054423487700987
5.129999999999998 19.130058908650767
5.159999999999998 19.20527195900069
5.189999999999999 19.280283567861
5.219999999999999 19.355265102789268
5.249999999999999 19.430322074059617
5.279999999999999 19.505486561924513
5.31 19.58071867260746
5.34 19.655916260270455
5.37 19.730931240211497
5.4 19.80559015635445
5.430000000000001 19.879716326075123
5.460000000000001 19.953150871845924
5.490000000000001 20.025770262470687
5.520000000000001 20.09749855300293
5.550000000000002 20.16831325165699
5.580000000000002 20.238244558203192
5.610000000000002 20.307368515504805
5.640000000000002 20.375795292639367
5.670000000000003 20.443654301092327
5.700000000000003 20.511078101510428
5.730000000000003 20.578187067660004
5.760000000000003 20.64507655174088
5.790000000000004 20.71180788291828
5.820000000000004 20.778403980667257
5.850000000000004 20.844849773112674
5.880000000000004 20.911097035167508
5.910000000000005 20.977072765492277
5.940000000000005 21.04268986926374
5.970000000000005 21.107858732241326
6.000000000000005 21.172498266025453
6.030000000000006 21.236545160026207
6.060000000000006 21.29996037518773
6.090000000000006 21.36273231525592
6.120000000000006 21.42487654444848
6.150000000000007 21.486432331984872
6.180000000000007 21.547456656346952
6.210000000000007 21.608016561186695
6.240000000000007 21.668180884103943
6.270000000000008 21.728012380763666
6.300000000000008 21.787561144767043
6.330000000000008 21.84686000427516
6.360000000000008 21.9059222946488
6.390000000000009 21.964742097010756
6.420000000000009 22.023296734413975
6.450000000000009 22.08155106271358
6.480000000000009 22.139462920981664
6.51000000000001 22.196989010004962
6.54000000000001 22.254090465561084
6.57000000000001 22.310737487980223
6.60000000000001 22.366912554083136
6.6300000000000106 22.422611931457176
6.660000000000011 22.477845436657525
6.690000000000011 22.532634598733846
6.720000000000011 22.587009563936004
6.7500000000000115 22.641005203045943
6.780000000000012 22.69465694867762
6.810000000000012 22.747996875283786
6.840000000000012 22.801050475081684
6.8700000000000125 22.853834463653904
6.900000000000013 22.90635580272911
6.930000000000013 22.958611974670113
6.960000000000013 23.010592374283682
6.9900000000000135 23.06228056171395
7.020000000000014 23.113657044575717
7.050000000000014 23.164702214012827
7.080000000000014 23.215399073018553
7.1100000000000145 23.2657354455864
7.140000000000015 23.315705435986168
7.170000000000015 23.36531002166715
7.200000000000015 23.41455677163673
7.2300000000000155 23.46345878887616
7.260000000000016 23.512033064984625
7.290000000000016 23.560298491814724
7.320000000000016 23.608273796354027
7.3500000000000165 23.65597565110002
7.380000000000017 23.703417178099905
7.410000000000017 23.750606999904235
7.440000000000017 23.79754891308467
7.4700000000000175 23.844242176912694
7.500000000000018 23.890682334049316
7.530000000000018 23.93686242169909
7.560000000000018 23.982774395830816
7.5900000000000185 24.028410577776313
7.620000000000019 24.07376494549733
7.650000000000019 24.11883412175083
7.680000000000019 24.163617959618676
7.7100000000000195 24.208119686449102
7.74000000000002 24.252345621787605
7.77000000000002 24.296304537428387
7.80000000000002 24.340006763420945
7.8300000000000205 24.38346316816211
7.860000000000021 24.426684147458754
7.890000000000021 24.46967874663726
7.920000000000021 24.512454014464517
7.9500000000000215 24.55501465014659
7.980000000000022 24.597362964324777
8.010000000000021 24.63949913532511
8.04000000000002 24.681421705439163
8.07000000000002 24.72312823837971
8.10000000000002 24.764616042148244
8.130000000000019 24.805882862474633
8.160000000000018 24.84692746325929
8.190000000000017 24.887750029943245
8.220000000000017 24.928352360566013
8.250000000000016 24.968737835732615
8.280000000000015 25.008911184250785
8.310000000000015 25.048878090374465
8.340000000000014 25.08864470398312
8.370000000000013 25.128217123589565
8.400000000000013 25.16760091867169
8.430000000000012 25.206800748654366
8.460000000000012 25.24582011740282
8.49000000000001 25.28466128471259
8.52000000000001 25.323325332802725
8.55000000000001 25.361812366544743
8.580000000000009 25.40012181224052
8.610000000000008 25.438252770260647
8.640000000000008 25.4762043724799
8.670000000000007 25.513976099207063
8.700000000000006 25.551568019580507
8.730000000000006 25.58898093243073
8.760000000000005 25.626216401533288
8.790000000000004 25.663276680026083
8.820000000000004 25.700164546968228
8.850000000000003 25.736883082642073
8.880000000000003 25.773435414592058
8.910000000000002 25.809824466926514
8.940000000000001 25.84605274380329
8.97 25.88212217063214
9.0 25.91803401375317
9.03 25.953788879110704
9.059999999999999 25.989386786663886
9.089999999999998 26.024827308201253
9.119999999999997 26.06010974587538
9.149999999999997 26.095233323369172
9.179999999999996 26.130197364456208
9.209999999999996 26.165001439766016
9.239999999999995 26.199645467298737
9.269999999999994 26.23412975439428
9.299999999999994 26.268454979337832
9.329999999999993 26.302622122613887
9.359999999999992 26.336632358909174
9.389999999999992 26.370486925803228
9.419999999999991 26.40418698812727
9.44999999999999 26.43773351859627
9.47999999999999 26.471127208614025
9.50999999999999 26.50436842267447
9.539999999999988 26.53745719550341
9.569999999999988 26.570393272509442
9.599999999999987 26.60317617315048
9.629999999999987 26.63580527197181
9.659999999999986 26.66827989388326
9.689999999999985 26.700599413228232
9.719999999999985 26.732763343759537
9.749999999999984 26.76477140408855
9.779999999999983 26.79662354215801
9.809999999999983 26.828319929261998
9.839999999999982 26.859860931980897
9.869999999999981 26.891247066958833
9.89999999999998 26.92247894493237
9.92999999999998 26.953557207101873
9.95999999999998 26.984482462687886
9.989999999999979 27.015255234245153
10.019999999999978 27.03939837935502
10.049999999999978 27.044842588331413
10.079999999999977 27.01978206160154
10.109999999999976 26.95636343699286
10.139999999999976 26.85236339411743
10.169999999999975 26.71159164884453
10.199999999999974 26.54324045050384
10.229999999999974 26.360364703407512
10.259999999999973 26.177767640869448
10.289999999999973 26.009654526710676
10.319999999999972 25.867447751111996
10.349999999999971 25.75811685697603
10.37999999999997 25.683277103415577
10.40999999999997 25.639172575526622
10.43999999999997 25.617510473059518
10.469999999999969 25.606976558939515
10.499999999999968 25.595158513940373
10.529999999999967 25.570549053455913
10.559999999999967 25.52430247082097
10.589999999999966 25.45147455141078
10.619999999999965 25.351576139373243
10.649999999999965 25.228394318122223
10.679999999999964 25.089158412802377
10.709999999999964 24.943228232216896
10.739999999999963 24.800543365297976
10.769999999999962 24.670088749469123
10.799999999999962 24.55860651629385
10.829999999999961 24.469726776312072
10.85999999999996 24.40361443347004
10.88999999999996 24.35714720261892
10.919999999999959 24.324563633892154
10.949999999999958 24.2984577940959
10.979999999999958 24.270955699856437
11.009999999999957 24.23489198379839
11.039999999999957 24.18481514512512
11.069999999999956 24.117684001936798
11.099999999999955 24.033171324854507
11.129999999999955 23.933553655307186
11.159999999999954 23.82322936011952
11.189999999999953 23.707959403345917
11.219999999999953 23.593959566948932
11.249999999999952 23.486985239423753
11.279999999999951 23.39154045672786
11.30999999999995 23.310315228257338
11.33999999999995 23.243915260386668
11.36999999999995 23.19090251912634
11.399999999999949 23.14812066366334
11.429999999999948 23.111241427972807
11.459999999999948 23.075441363650327
11.489999999999947 23.03610582444386
11.519999999999946 22.989459506651887
11.549999999999946 22.933039414396625
11.579999999999945 22.865953756036948
11.609999999999944 22.78890440230874
11.639999999999944 22.703985796940373
11.669999999999943 22.614304019064317
11.699999999999942 22.523482068048935
11.729999999999942 22.435128446206598
11.759999999999941 22.35234522962392
11.78999999999994 22.277340313798824
11.81999999999994 22.21118903815323
11.84999999999994 22.15376642455091
11.879999999999939 22.10384646386312
11.909999999999938 22.059342656713408
11.939999999999937 22.017647027240066
11.969999999999937 21.976014786209177
11.999999999999936 21.931939668204727
12.029999999999935 21.883470256305916
12.059999999999935 21.82942922317604
12.089999999999934 21.76951331379327
12.119999999999933 21.704269628816544
12.149999999999933 21.634960773623234
12.179999999999932 21.563345369074277
12.209999999999932 21.491409638524573
12.239999999999931 21.421089460549464
12.26999999999993 21.35402028625166
12.29999999999993 21.29134557315615
12.329999999999929 21.233604168122735
12.359999999999928 21.1807050769222
12.389999999999928 21.13198599642591
12.419999999999927 21.086341412784137
12.449999999999926 21.042398225089926
12.479999999999926 20.998712492955057
12.509999999999925 20.95396022191619
12.539999999999925 20.907098049030616
12.569999999999924 20.857475418970804
12.599999999999923 20.804887577289193
12.629999999999923 20.749567180732566
12.659999999999922 20.692120434224165
12.689999999999921 20.633420356002325
12.71999999999992 20.574474275570267
12.74999999999992 20.516284606556233
12.77999999999992 20.45972124222328
12.809999999999919 20.40542091629247
12.839999999999918 20.35372420922127
12.869999999999918 20.304655184220042
12.899999999999917 20.25794281471488
12.929999999999916 20.213078147798807
12.959999999999916 20.169397097565916
12.989999999999915 20.126176338242054
13.019999999999914 20.08272911543383
13.049999999999914 20.03848883947445
13.079999999999913 19.993070848212106
13.109999999999912 19.946306253692065
13.139999999999912 19.89824581781032
13.169999999999911 19.84913577320208
13.19999999999991 19.799370907458265
13.22999999999991 19.749432676451875
13.25999999999991 19.69982137237684
13.289999999999909 19.65099139393451
13.319999999999908 19.603297533104964
13.349999999999907 19.55695815267724
13.379999999999907 19.512038523725437
13.409999999999906 19.468454785466637
13.439999999999905 19.425996345807725
13.469999999999905 19.384362405999692
13.499999999999904 19.343206867075224
13.529999999999903 19.30218527231341
13.559999999999903 19.26099769715535
13.589999999999902 19.219422518398645
13.619999999999902 19.177337540753697
13.6499999999999 19.134726863433663
13.6799999999999 19.091673788303524
13.7099999999999 19.048341809177288
13.739999999999899 19.00494707363434
13.769999999999898 18.96172649574912
13.799999999999898 18.918905905625238
13.829999999999897 18.87667225434778
13.859999999999896 18.83515302274211
13.889999999999896 18.794404832945553
13.919999999999895 18.754411928529798
13.949999999999894 18.715093885683594
13.979999999999894 18.676320811235904
14.009999999999893 18.637933504095344
14.039999999999893 18.599765628864006
14.069999999999892 18.56166491330204
14.099999999999891 18.523510778837206
14.12999999999989 18.485226482962865
14.15999999999989 18.44678469375036
14.18999999999989 18.40820636341786
14.219999999999889 18.369553606644367
14.249999999999888 18.33091794953819
14.279999999999887 18.292405823432333
14.309999999999887 18.25412339807989
14.339999999999886 18.21616274534429
14.369999999999886 18.17859097530638
14.399999999999885 18.141443469861688
14.429999999999884 18.104721724221793
14.459999999999884 18.068395670659886
14.489999999999883 18.032409814327842
14.519999999999882 17.99669208781185
14.549999999999882 17.961164070293833
14.579999999999881 17.92575114619629
14.60999999999988 17.89039130971612
14.63999999999988 17.85504161295237
14.66999999999988 17.819681649537692
14.699999999999878 17.78431388840432
14.729999999999878 17.748961081753468
14.759999999999877 17.713661322223636
14.789999999999877 17.67846157885087
14.819999999999876 17.643410655231243
14.849999999999875 17.60855251431982
14.879999999999875 17.573920794070172
14.909999999999874 17.539535117919648
14.939999999999873 17.50539951339198
14.969999999999873 17.471502951526308
14.999999999999872 17.43782177904714
15.029999999999871 17.404323587600267
15.05999999999987 17.370971898833638
15.08999999999987 17.33773100913958
15.11999999999987 17.304570350360525
15.149999999999869 17.27146783843529
15.179999999999868 17.238411852485022
15.209999999999868 17.205401696025437
15.239999999999867 17.172446603531814
15.269999999999866 17.139563553978412
15.299999999999866 17.10677427920364
15.329999999999865 17.07410192392085
15.359999999999864 17.04156781363201
15.389999999999864 17.009188726364766
15.419999999999863 16.976974979876584
15.449999999999863 16.944929495155993
15.479999999999862 16.91304787219529
15.509999999999861 16.881319399150307
15.53999999999986 16.849728797565405
15.56999999999986 16.818258415897056
15.59999999999986 16.786890571553265
15.629999999999859 16.755609741017015
15.659999999999858 16.72440431880262
15.689999999999857 16.693267753155542
15.719999999999857 16.662198956943524
15.749999999999856 16.63120200476147
15.779999999999855 16.600285191181836
15.809999999999855 16.56945959692493
15.839999999999854 16.53873738187702
15.869999999999854 16.50813005892427
15.899999999999853 16.4776469960811
15.929999999999852 16.4472943048876
15.959999999999852 16.417074237346952
15.989999999999851 16.386985150604023
16.01999999999985 16.357021989812267
16.04999999999985 16.327177172548804
16.079999999999853 16.297441728355356
16.109999999999854 16.26780651863333
16.139999999999855 16.23826337035152
16.169999999999856 16.208805980083476
16.199999999999857 16.179430503731776
16.22999999999986 16.150135790452705
16.25999999999986 16.12092324796894
16.28999999999986 16.091796382703365
