# Results for "element" with Id # 2676101 for search config "initial" at position: x0: -250; y0: 0; z0: 64.6551724138
# time VELOCITY_X
0.03 0.007124409693155857
0.06 0.029841016622981054
0.09 0.07554773275674645
0.12 0.1494255412831366
0.15 0.253894097372259
0.18 0.3884583178263708
0.21 0.5498653104809871
0.24 0.7325186383888774
0.27 0.9290936393735464
0.30000000000000004 1.1312877995584618
0.33000000000000007 1.3306324047730311
0.3600000000000001 1.519288983406323
0.3900000000000001 1.6907573969747998
0.42000000000000015 1.8404321784719482
0.4500000000000002 1.9659593242208224
0.4800000000000002 2.0673659930323094
0.5100000000000002 2.1469585130386566
0.5400000000000003 2.2090072512307026
0.5700000000000003 2.259257580980629
0.6000000000000003 2.3043219396879584
0.6300000000000003 2.3510171159906568
0.6600000000000004 2.4057126512336717
0.6900000000000004 2.473751108853759
0.7200000000000004 2.558990186972188
0.7500000000000004 2.6635021478968257
0.7800000000000005 2.787449897511277
0.8100000000000005 2.9291429416859134
0.8400000000000005 3.0852615296733905
0.8700000000000006 3.2512241253911123
0.9000000000000006 3.4216622487176775
0.9300000000000006 3.5909579349440017
0.9600000000000006 3.7537933275752073
0.9900000000000007 3.905659977248052
1.0200000000000007 4.043278439459275
1.0500000000000007 4.1648870498327915
1.0800000000000007 4.270372096581602
1.1100000000000008 4.3612286236935445
1.1400000000000008 4.440359608431525
1.1700000000000008 4.511738695212589
1.2000000000000008 4.5799755688567085
1.2300000000000009 4.64983185002348
1.260000000000001 4.725738257771314
1.290000000000001 4.81136120389037
1.320000000000001 4.90925974320449
1.350000000000001 5.020663381273516
1.380000000000001 5.145388799539039
1.410000000000001 5.281900184738015
1.440000000000001 5.427504382594414
1.470000000000001 5.5786593256584975
1.500000000000001 5.731363105522506
1.5300000000000011 5.881582653147696
1.5600000000000012 6.025676570189552
1.5900000000000012 6.160766975683251
1.6200000000000012 6.285020831660908
1.6500000000000012 6.397811617142002
1.6800000000000013 6.499746248633115
1.7100000000000013 6.592557904849722
1.7400000000000013 6.67888075051776
1.7700000000000014 6.7619354374872
1.8000000000000014 6.845163091372209
1.8300000000000014 6.931849549656079
1.8600000000000014 7.024780665827455
1.8900000000000015 7.1259642994845604
1.9200000000000015 7.236445916929727
1.9500000000000015 7.356233816531198
1.9800000000000015 7.484337987602727
2.0100000000000016 7.618914645050232
2.0400000000000014 7.757497611133762
2.070000000000001 7.897288921767649
2.100000000000001 8.035475252827489
2.130000000000001 8.169534589925902
2.1600000000000006 8.297499494067521
2.1900000000000004 8.418149012382237
2.22 8.531110307567701
2.25 8.636862120850111
2.28 8.736643827090488
2.3099999999999996 8.832284563404098
2.3399999999999994 8.92597534582667
2.369999999999999 9.020012346681535
2.399999999999999 9.116541143676741
2.429999999999999 9.217329956680874
2.4599999999999986 9.323595073276365
2.4899999999999984 9.435894774660976
2.5199999999999982 9.554099833072256
2.549999999999998 9.677440103362407
2.579999999999998 9.804618662251821
2.6099999999999977 9.933978107222892
2.6399999999999975 10.063698652279335
2.6699999999999973 10.192004997785933
2.699999999999997 10.317358851253964
2.729999999999997 10.438616444452315
2.7599999999999967 10.555135112733122
2.7899999999999965 10.666819350057356
2.8199999999999963 10.774104024864355
2.849999999999996 10.87787963778422
2.879999999999996 10.979370807518487
2.9099999999999957 11.079983863122933
2.9399999999999955 11.181142037130243
2.9699999999999953 11.284127135645422
2.999999999999995 11.389944832741364
3.029999999999995 11.499227215242659
3.0599999999999947 11.612181431822716
3.0899999999999945 11.728587835830746
3.1199999999999943 11.84784544231048
3.149999999999994 11.969057457763352
3.179999999999994 12.091145554599407
3.2099999999999937 12.212978861885272
3.2399999999999936 12.33350258485358
3.2699999999999934 12.451851828209296
3.299999999999993 12.567438467089426
3.329999999999993 12.68000251013328
3.3599999999999928 12.78962382709916
3.3899999999999926 12.896694858113513
3.4199999999999924 13.001859381430743
3.449999999999992 13.105926055507673
3.479999999999992 13.209767899081806
3.509999999999992 13.314219884543615
3.5399999999999916 13.419986384022733
3.5699999999999914 13.527568449977407
3.599999999999991 13.63721811041549
3.629999999999991 13.74892341868744
3.659999999999991 13.862424315370408
3.6899999999999906 13.977255856151892
3.7199999999999904 14.09281242303452
3.7499999999999902 14.208424472158677
3.77999999999999 14.32343835812921
3.80999999999999 14.43728990479526
3.8399999999999896 14.549563589202041
3.8699999999999894 14.660031297600096
3.8999999999999893 14.768667318907958
3.929999999999989 14.87563918569565
3.959999999999989 14.981276818994774
3.9899999999999887 15.08602482604186
4.019999999999989 15.190384484461037
4.049999999999989 15.29485275454101
4.079999999999989 15.399865562671863
4.10999999999999 15.505751656659225
4.13999999999999 15.612701717973506
4.16999999999999 15.720755357053928
4.19999999999999 15.829806382157447
4.229999999999991 15.939624598457794
4.259999999999991 16.049890574971567
4.289999999999991 16.160238539808613
4.319999999999991 16.270301913212993
4.349999999999992 16.379756022668786
4.379999999999992 16.48835321135013
4.409999999999992 16.595946742684227
4.439999999999992 16.702501443882152
4.469999999999993 16.808090718167975
4.499999999999993 16.91288117952611
4.529999999999993 17.017107529336002
4.559999999999993 17.12104126709096
4.589999999999994 17.224957304167706
4.619999999999994 17.329102515652703
4.649999999999994 17.43366975740115
4.679999999999994 17.538779994555004
4.709999999999995 17.64447405245627
4.739999999999995 17.750714273471754
4.769999999999995 17.857395187319046
4.799999999999995 17.964361317880986
4.829999999999996 18.071429542586745
4.859999999999996 18.178413080352
4.889999999999996 18.28514419385177
4.919999999999996 18.391493055553397
4.949999999999997 18.49738085051259
4.979999999999997 18.602786003680087
5.009999999999997 18.707743306614866
5.039999999999997 18.812336568630975
5.069999999999998 18.916686125124073
5.099999999999998 19.02093303402162
5.129999999999998 19.125222054357785
5.159999999999998 19.22968547579479
5.189999999999999 19.33442962001609
5.219999999999999 19.439525382063202
5.249999999999999 19.545003608189784
5.279999999999999 19.650855477205944
5.31 19.757037457905177
5.34 19.863479918075733
5.37 19.970098106290834
5.4 20.076804044841875
5.430000000000001 20.183517881607543
5.460000000000001 20.29017741487032
5.490000000000001 20.396744823617713
5.520000000000001 20.503210034347127
5.550000000000002 20.609590589206533
5.580000000000002 20.715928297208592
5.610000000000002 20.82228330762026
5.640000000000002 20.92872649521999
5.670000000000003 21.03533117063622
5.700000000000003 21.142165131383933
5.730000000000003 21.249283951930355
5.760000000000003 21.35672619871292
5.790000000000004 21.464510980252918
5.820000000000004 21.57263792999779
5.850000000000004 21.681089434729017
5.880000000000004 21.789834674642236
5.910000000000005 21.89883485986394
5.940000000000005 22.008048959105224
5.970000000000005 22.11743921546489
6.000000000000005 22.22697582330386
6.030000000000006 22.33664027971131
6.060000000000006 22.446427117564454
6.090000000000006 22.556343946097726
6.120000000000006 22.666409928892335
6.150000000000007 22.776652997208714
6.180000000000007 22.88710622113613
6.210000000000007 22.99780383133168
6.240000000000007 23.1087773853119
6.270000000000008 23.220052518140754
6.300000000000008 23.331646612513403
6.330000000000008 23.443567588854137
6.360000000000008 23.55581387071294
6.390000000000009 23.66837543869756
6.420000000000009 23.781235764712374
6.450000000000009 23.894374327927757
6.480000000000009 24.00776937630096
6.51000000000001 24.121400587871328
6.54000000000001 24.235251320816584
6.57000000000001 24.34931022047723
6.60000000000001 24.463572050534893
6.6300000000000106 24.57803770632921
6.660000000000011 24.69271347046941
6.690000000000011 24.807609662647216
6.720000000000011 24.92273889023505
6.7500000000000115 25.038114139080918
6.780000000000012 25.15374694920025
6.810000000000012 25.269645881508147
6.840000000000012 25.385815441350395
6.8700000000000125 25.50225555172591
6.900000000000013 25.618961598314996
6.930000000000013 25.73592500542876
6.960000000000013 25.853134223410976
6.9900000000000135 25.970575974554464
7.020000000000014 26.088236592996637
7.050000000000014 26.20610328933551
7.080000000000014 26.324165199470933
7.1100000000000145 26.44241411064008
7.140000000000015 26.560844800341066
7.170000000000015 26.679454983787437
7.200000000000015 26.798244905913243
7.2300000000000155 26.91721665588893
7.260000000000016 27.036373312210632
7.290000000000016 27.155718036968583
7.320000000000016 27.27525323294123
7.3500000000000165 27.39497985780907
7.380000000000017 27.514896969662693
7.410000000000017 27.63500154199658
7.440000000000017 27.75528855151746
7.4700000000000175 27.875751306872004
7.500000000000018 27.996381958800864
7.530000000000018 28.117172115547987
7.560000000000018 28.238113481636276
7.5900000000000185 28.359198440866948
7.620000000000019 28.480420519056622
7.650000000000019 28.601774679068683
7.680000000000019 28.723257425564093
7.7100000000000195 28.844866725298147
7.74000000000002 28.96660176726315
7.77000000000002 29.08846260704323
7.80000000000002 29.21044974625066
7.8300000000000205 29.332563703736106
7.860000000000021 29.45480463159592
7.890000000000021 29.5771720196218
7.920000000000021 29.699664517975755
7.9500000000000215 29.82227988952517
7.980000000000022 29.945015087062313
8.010000000000021 30.06786643623591
8.04000000000002 30.190829892200764
8.07000000000002 30.313901334037304
8.10000000000002 30.437076855513244
8.130000000000019 30.560353017260688
8.160000000000018 30.683727032812868
8.190000000000017 30.80719687031919
8.220000000000017 30.930761265896862
8.250000000000016 31.054419652390383
8.280000000000015 31.17817201566887
8.310000000000015 31.302018703456778
8.340000000000014 31.425960213644444
8.370000000000013 31.549996990997876
8.400000000000013 31.674129255608072
8.430000000000012 31.798356882057327
8.460000000000012 31.922679337875074
8.49000000000001 32.04709568512679
8.52000000000001 32.17160463739863
8.55000000000001 32.29620465922575
8.580000000000009 32.420894092019864
8.610000000000008 32.54567128824219
8.640000000000008 32.67053473553635
8.670000000000007 32.795483155964504
8.700000000000006 32.92051557019376
8.730000000000006 33.04563132241748
8.760000000000005 33.17083006921537
8.790000000000004 33.29611172636662
8.820000000000004 33.42147639047393
8.850000000000003 33.54692424422348
8.880000000000003 33.67245545725295
8.910000000000002 33.79807009306005
8.940000000000001 33.92376803227288
8.97 34.04954891855843
9.0 34.175412136596314
9.03 34.301356816916304
9.059999999999999 34.42738186794088
9.089999999999998 34.55348603019471
9.119999999999997 34.6796679425166
9.149999999999997 34.80592620811859
9.179999999999996 34.93225945225387
9.209999999999996 35.05866636713313
9.239999999999995 35.185145740510166
9.269999999999994 35.31169646162346
9.299999999999994 35.43831750483485
9.329999999999993 35.56500789804909
9.359999999999992 35.69176667822721
9.389999999999992 35.818592840093515
9.419999999999991 35.945485285446665
9.44999999999999 36.07244278188773
9.47999999999999 36.19946393430188
9.50999999999999 36.32654717603434
9.539999999999988 36.45369077440301
9.569999999999988 36.580892852623336
9.599999999999987 36.70815141041156
9.629999999999987 36.835464347964944
9.659999999999986 36.96282949703324
9.689999999999985 37.09024465611229
9.719999999999985 37.21770762400578
9.749999999999984 37.34521622278082
9.779999999999983 37.47276829860668
9.809999999999983 37.60036171571798
9.839999999999982 37.72799434730446
9.869999999999981 37.85566406381361
9.89999999999998 37.983368719645995
9.92999999999998 38.11110613495762
9.95999999999998 38.23887407658839
9.989999999999979 38.366670238873155
10.019999999999978 38.487081466033516
10.049999999999978 38.58809545144095
10.079999999999977 38.659183804659364
10.109999999999976 38.69406644434659
10.139999999999976 38.69187452712967
10.169999999999975 38.65719606154369
10.199999999999974 38.59920599297286
10.229999999999974 38.530086811815195
10.259999999999973 38.463025248037845
10.289999999999973 38.41012856217529
10.319999999999972 38.38060510352351
10.349999999999971 38.37949386352979
10.37999999999997 38.407121787709265
10.40999999999997 38.459337894097246
10.43999999999997 38.52844334820466
10.469999999999969 38.604627438607025
10.499999999999968 38.67764731383332
10.529999999999967 38.738464258263164
10.559999999999967 38.780574379503335
10.589999999999966 38.800839526556935
10.619999999999965 38.79972215488426
10.649999999999965 38.78093461444762
10.679999999999964 38.750609123659146
10.709999999999964 38.71616269852203
10.739999999999963 38.68506263127279
10.769999999999962 38.663692147907916
10.799999999999962 38.65647930747044
10.829999999999961 38.665395012374816
10.85999999999996 38.6898609054522
10.88999999999996 38.72704380990659
10.919999999999959 38.772459623408366
10.949999999999958 38.820771584779315
10.979999999999958 38.86664901229811
11.009999999999957 38.905554354851446
11.039999999999957 38.934347379333076
11.069999999999956 38.951631385403154
11.099999999999955 38.9578115823846
11.129999999999955 38.95488166681233
11.159999999999954 38.945994759322474
11.189999999999953 38.934902270052575
11.219999999999953 38.92535598767626
11.249999999999952 38.92056472552748
11.279999999999951 38.92277949932402
11.30999999999995 38.93305485056004
11.33999999999995 38.951203711481895
11.36999999999995 38.975933674725
11.399999999999949 39.00512818278492
11.429999999999948 39.03621902521009
11.459999999999948 39.066588722197295
11.489999999999947 39.09394293075914
11.519999999999946 39.11660275163868
11.549999999999946 39.1336829345386
11.579999999999945 39.14514153325061
11.609999999999944 39.151706386992984
11.639999999999944 39.15470100228795
11.669999999999943 39.155804362148736
11.699999999999942 39.15678506919294
11.729999999999942 39.15924944408155
11.759999999999941 39.164436887764396
11.78999999999994 39.173085589806846
11.81999999999994 39.18537948074043
11.84999999999994 39.20097514742171
11.879999999999939 39.21909686046029
11.909999999999938 39.23868012012089
11.939999999999937 39.25853981037734
11.969999999999937 39.2775382250409
11.999999999999936 39.29473080453853
12.029999999999935 39.3094725045747
12.059999999999935 39.32147458482761
12.089999999999934 39.3308091083186
12.119999999999933 39.33786559345057
12.149999999999933 39.34327013832538
12.179999999999932 39.34778122288797
12.209999999999932 39.35217802947554
12.239999999999931 39.35715655345872
12.26999999999993 39.36324619224308
12.29999999999993 39.370755625723106
12.329999999999929 39.37975217038986
12.359999999999928 39.39007412938634
12.389999999999928 39.401371517340706
12.419999999999927 39.41316737374269
12.449999999999926 39.424929999736875
12.479999999999926 39.43614594899742
12.509999999999925 39.44638434829284
12.539999999999925 39.4553451018341
12.569999999999924 39.462886154184005
12.599999999999923 39.46902812193473
12.629999999999923 39.473937626783396
12.659999999999922 39.477893302596215
12.689999999999921 39.48124033853716
12.71999999999992 39.48434038205004
12.74999999999992 39.4875236426675
12.77999999999992 39.491049148026924
12.809999999999919 39.495077523815766
12.839999999999918 39.4996587318294
12.869999999999918 39.50473503862957
12.899999999999917 39.51015753331579
12.929999999999916 39.51571294463575
12.959999999999916 39.52115645387393
12.989999999999915 39.526245810526376
13.019999999999914 39.530772283993116
13.049999999999914 39.53458474099139
13.079999999999913 39.537604339754154
13.109999999999912 39.539828732672916
13.139999999999912 39.54132611603576
13.169999999999911 39.54222074762446
13.19999999999991 39.54267250814699
13.22999999999991 39.54285362497281
13.25999999999991 39.54292576971514
13.289999999999909 39.54302042732192
13.319999999999908 39.54322476513725
13.349999999999907 39.54357433755689
13.379999999999907 39.54405298694151
13.409999999999906 39.544599355440184
13.439999999999905 39.54511862092754
13.469999999999905 39.54549753566581
13.499999999999904 39.54562058080345
13.529999999999903 39.54538507348478
13.559999999999903 39.54471337480713
13.589999999999902 39.54356088659392
13.619999999999902 39.54191914953891
13.6499999999999 39.53981406679105
13.6799999999999 39.53729987393581
13.7099999999999 39.534449975266135
13.739999999999899 39.53134608792929
13.769999999999898 39.528067217003155
13.799999999999898 39.52467988725918
13.829999999999897 39.521230780261234
13.859999999999896 39.517742494032426
13.889999999999896 39.51421271729284
13.919999999999895 39.510616637904064
13.949999999999894 39.50691200857797
13.979999999999894 39.503046007336316
14.009999999999893 39.498962894392434
14.039999999999893 39.4946114297981
14.069999999999892 39.48995109800639
14.099999999999891 39.48495645410979
14.12999999999989 39.47961919581742
14.15999999999989 39.473947870634234
14.18999999999989 39.467965469618896
14.219999999999889 39.46170537836517
14.249999999999888 39.45520629108154
14.279999999999887 39.44850682817243
14.309999999999887 39.4416405987816
14.339999999999886 39.43463231481988
14.369999999999886 39.42749536407075
14.399999999999885 39.42023103286493
14.429999999999884 39.41282934450365
14.459999999999884 39.40527126497981
14.489999999999883 39.39753189209782
14.519999999999882 39.38958415108225
14.549999999999882 39.38140248299713
14.579999999999881 39.372966041420604
14.60999999999988 39.364261024388384
14.63999999999988 39.35528191944165
14.66999999999988 39.34603160327963
14.699999999999878 39.336520378155555
14.729999999999878 39.32676415047466
14.759999999999877 39.316782049923006
14.789999999999877 39.306593838976134
14.819999999999876 39.29621744917911
14.849999999999875 39.28566694829473
14.879999999999875 39.27495116812093
14.909999999999874 39.26407311909453
14.939999999999873 39.25303019522043
14.969999999999873 39.241815068972556
14.999999999999872 39.23041713124138
15.029999999999871 39.21882425950419
15.05999999999987 39.20702465274691
15.08999999999987 39.19500850839221
15.11999999999987 39.182769324799224
15.149999999999869 39.17030468495187
15.179999999999868 39.157616449314745
15.209999999999868 39.144710375291524
15.239999999999867 39.13159525706402
15.269999999999866 39.11828174876713
15.299999999999866 39.10478105148535
15.329999999999865 39.09110364865926
15.359999999999864 39.07725824413261
15.389999999999864 39.0632510119689
15.419999999999863 39.04908523423947
15.449999999999863 39.034761318744785
15.479999999999862 39.0202771637761
15.509999999999861 39.005628810023005
15.53999999999986 38.99081128023135
15.56999999999986 38.97581947836855
15.59999999999986 38.960649052276196
15.629999999999859 38.945297122176356
15.659999999999858 38.929762779257736
15.689999999999857 38.91404731132342
15.719999999999857 38.89815414033765
15.749999999999856 38.88208850976868
15.779999999999855 38.865856956571506
15.809999999999855 38.849466630622686
15.839999999999854 38.832924563114894
15.869999999999854 38.81623699676339
15.899999999999853 38.799408881825656
15.929999999999852 38.782443563833965
15.959999999999852 38.76534270540054
15.989999999999851 38.74810645088097
16.01999999999985 38.73073377561474
16.04999999999985 38.71322294581351
16.079999999999853 38.695572021838046
16.109999999999854 38.67777932936748
16.139999999999855 38.65984384115504
16.169999999999856 38.641765425018896
16.199999999999857 38.62354495391014
16.22999999999986 38.605184283546954
16.25999999999986 38.58668609593917
16.28999999999986 38.56805363905704
16.31999999999986 38.549290399201574
16.349999999999863 38.530399738320725
