# Results for "element" with Id # 2684661 for search config "initial" at position: x0: -250; y0: 0; z0: 349.137931034
# time VELOCITY_X
0.03 0.007323902715325429
0.06 0.030698373329046437
0.09 0.07778265729598442
0.12 0.15399202097408174
0.15 0.2619290283809817
0.18 0.4012047601042501
0.21 0.5685711828379677
0.24 0.7583179122529312
0.27 0.962884386149677
0.30000000000000004 1.173626514924058
0.33000000000000007 1.381664520851218
0.3600000000000001 1.5787305571041357
0.3900000000000001 1.7579338179633048
0.42000000000000015 1.914368785398243
0.4500000000000002 2.0455090638349755
0.4800000000000002 2.1513531509035118
0.5100000000000002 2.2343162599781263
0.5400000000000003 2.2988899606697784
0.5700000000000003 2.3511150883418597
0.6000000000000003 2.397930192494266
0.6300000000000003 2.4464662748688215
0.6600000000000004 2.503358771456929
0.6900000000000004 2.5741407907778973
0.7200000000000004 2.6627694996304743
0.7500000000000004 2.7713221329510778
0.7800000000000005 2.899881167081337
0.8100000000000005 3.0466110072312467
0.8400000000000005 3.208012042178816
0.8700000000000006 3.3793229021030364
0.9000000000000006 3.555029079223408
0.9300000000000006 3.729426763569014
0.9600000000000006 3.8971858746581924
0.9900000000000007 4.053856835993519
1.0200000000000007 4.196271956744196
1.0500000000000007 4.322804047588312
1.0800000000000007 4.433460832750497
1.1100000000000008 4.529811832773203
1.1400000000000008 4.614762324312232
1.1700000000000008 4.692204448753999
1.2000000000000008 4.766586756017362
1.2300000000000009 4.842449429503618
1.260000000000001 4.923973006693926
1.290000000000001 5.014584093498446
1.320000000000001 5.1166534416476175
1.350000000000001 5.231311004637958
1.380000000000001 5.358390385172681
1.410000000000001 5.496502514270277
1.440000000000001 5.643226376005888
1.470000000000001 5.795393961345436
1.500000000000001 5.949438219647581
1.5300000000000011 6.1017673424953
1.5600000000000012 6.249126869518452
1.5900000000000012 6.388913230177737
1.6200000000000012 6.519408271012711
1.6500000000000012 6.639913514979661
1.6800000000000013 6.750774247305782
1.7100000000000013 6.853295643141116
1.7400000000000013 6.949564538887041
1.7700000000000014 7.042199777885614
1.8000000000000014 7.134060357471694
1.8300000000000014 7.22794338305348
1.8600000000000014 7.3263030894346155
1.8900000000000015 7.43101831407622
1.9200000000000015 7.54322946938027
1.9500000000000015 7.663258077997559
1.9800000000000015 7.790613145800116
2.0100000000000016 7.9240798643845585
2.0400000000000014 8.061878133108387
2.070000000000001 8.201871852786425
2.100000000000001 8.341805462781405
2.130000000000001 8.479542194921642
2.1600000000000006 8.613279214632591
2.1900000000000004 8.741718130391995
2.22 8.864174910059871
2.25 8.980620360337927
2.28 9.091650158862503
2.3099999999999996 9.198391030732097
2.3399999999999994 9.30235616549573
2.369999999999999 9.405267690736746
2.399999999999999 9.508866536839427
2.429999999999999 9.614730230173476
2.4599999999999986 9.724117183543116
2.4899999999999984 9.837852292208083
2.5199999999999982 9.95626358208695
2.549999999999998 10.07917390067002
2.579999999999998 10.205945772713061
2.6099999999999977 10.335572142755069
2.6399999999999975 10.46680129764939
2.6699999999999973 10.598281214582034
2.699999999999997 10.728707182274936
2.729999999999997 10.856956907181598
2.7599999999999967 10.982199353557402
2.7899999999999965 11.103967011989237
2.8199999999999963 11.222185724328254
2.849999999999996 11.337161064112827
2.879999999999996 11.449525022140936
2.9099999999999957 11.560150836304382
2.9399999999999955 11.670046812821735
2.9699999999999953 11.780241639953676
2.999999999999995 11.891673903403726
3.029999999999995 12.005097342517333
3.0599999999999947 12.121011065095905
3.0899999999999945 12.239620773980288
3.1199999999999943 12.36083343542216
3.149999999999994 12.484284141113628
3.179999999999994 12.609390555612617
3.2099999999999937 12.735427637308167
3.2399999999999936 12.861613523550494
3.2699999999999934 12.987196734434962
3.299999999999993 13.111535209827524
3.329999999999993 13.234159073553055
3.3599999999999928 13.354811213211915
3.3899999999999926 13.473462506659057
3.4199999999999924 13.590301474370582
3.449999999999992 13.705700948505424
3.479999999999992 13.820166719745602
3.509999999999992 13.934274806011834
3.5399999999999916 14.048604839713725
3.5699999999999914 14.16367704934955
3.599999999999991 14.279899473128662
3.629999999999991 14.397530535319378
3.659999999999991 14.516660141677125
3.6899999999999906 14.63721025085901
3.7199999999999904 14.758953702461381
3.7499999999999902 14.881548165443679
3.77999999999999 15.004580599643008
3.80999999999999 15.127616738518249
3.8399999999999896 15.250249866950742
3.8699999999999894 15.37214357760102
3.8999999999999893 15.49306416626281
3.929999999999989 15.612899727506843
3.959999999999989 15.73166466188196
3.9899999999999887 15.849490001055003
4.019999999999989 15.966601506397161
4.049999999999989 16.083288729871583
4.079999999999989 16.19986902843697
4.10999999999999 16.31665082928647
4.13999999999999 16.43390025249527
4.16999999999999 16.551814563595737
4.19999999999999 16.670504950637874
4.229999999999991 16.789989930857434
4.259999999999991 16.910199429776814
4.289999999999991 17.030988393864657
4.319999999999991 17.152157812233412
4.349999999999992 17.273480336178167
4.379999999999992 17.39472735365902
4.409999999999992 17.515694414196062
4.439999999999992 17.636222282596965
4.469999999999993 17.756211563253153
4.499999999999993 17.875629688820606
4.529999999999993 17.99450999847964
4.559999999999993 18.112943535926846
4.589999999999994 18.23106496899705
4.619999999999994 18.349034597893766
4.649999999999994 18.46701872486765
4.679999999999994 18.585170689751525
4.709999999999995 18.70361464591668
4.739999999999995 18.822433705166944
4.769999999999995 18.941663481743458
4.799999999999995 19.061291393298756
4.829999999999996 19.18126140554878
4.859999999999996 19.301483321806398
4.889999999999996 19.421845266260867
4.919999999999996 19.54222774396199
4.949999999999997 19.66251759026445
4.979999999999997 19.782620248295302
5.009999999999997 19.902469105533022
5.039999999999997 20.022031038286766
5.069999999999998 20.14130779763392
5.099999999999998 20.260333363189513
5.129999999999998 20.37916784135105
5.159999999999998 20.497888833206282
5.189999999999999 20.61658142347474
5.219999999999999 20.735328017928964
5.249999999999999 20.85419919138984
5.279999999999999 20.973246514381334
5.31 21.092498036448895
5.34 21.211956756724128
5.37 21.33160205090806
5.4 21.451393688141497
5.430000000000001 21.571277803496656
5.460000000000001 21.69119400950285
5.490000000000001 21.81108275675267
5.520000000000001 21.9308920844324
5.550000000000002 22.050583029901254
5.580000000000002 22.170133169567126
5.610000000000002 22.289538013401135
5.640000000000002 22.408810241163504
5.670000000000003 22.527977016914672
5.700000000000003 22.647075824686386
5.730000000000003 22.766149407587008
5.760000000000003 22.885240456767892
5.790000000000004 23.004386681216317
5.820000000000004 23.12361680249322
5.850000000000004 23.24294787345767
5.880000000000004 23.36238413947268
5.910000000000005 23.481917466578743
5.940000000000005 23.601529177759666
5.970000000000005 23.721192984372877
6.000000000000005 23.840878595285638
6.030000000000006 23.960555535049615
6.060000000000006 24.08019671091979
6.090000000000006 24.19978132937198
6.120000000000006 24.319296867065844
6.150000000000007 24.438739932260656
6.180000000000007 24.558115994506615
6.210000000000007 24.677438094757115
6.240000000000007 24.796724760042636
6.270000000000008 24.91599742461565
6.300000000000008 25.035277696300277
6.330000000000008 25.154584800692156
6.360000000000008 25.27393349183508
6.390000000000009 25.39333264229624
6.420000000000009 25.512784630008117
6.450000000000009 25.632285536564098
6.480000000000009 25.751826074940084
6.51000000000001 25.8713930846367
6.54000000000001 25.99097137460649
6.57000000000001 26.11054567132148
6.60000000000001 26.230102433370398
6.6300000000000106 26.349631326543488
6.660000000000011 26.469126209403427
6.690000000000011 26.58858554804845
6.720000000000011 26.708012252563673
6.7500000000000115 26.827412997040298
6.780000000000012 26.94679714232747
6.810000000000012 27.066175419173728
6.840000000000012 27.185558546550975
6.8700000000000125 27.304955954808328
6.900000000000013 27.424374757548073
6.930000000000013 27.543819076796765
6.960000000000013 27.66328977560112
6.9900000000000135 27.782784599501166
7.020000000000014 27.90229867969632
7.050000000000014 28.021825310581555
7.080000000000014 28.141356888561646
7.1100000000000145 28.260885887693373
7.140000000000015 28.380405752476502
7.170000000000015 28.499911607356545
7.200000000000015 28.619400711393855
7.2300000000000155 28.73887262352617
7.260000000000016 28.858329079636917
7.290000000000016 28.977773618094872
7.320000000000016 29.097211017391523
7.3500000000000165 29.216646627664236
7.380000000000017 29.336085684186987
7.410000000000017 29.455532686543993
7.440000000000017 29.574990912973693
7.4700000000000175 29.69446211788447
7.500000000000018 29.813946435003917
7.530000000000018 29.933442482704034
7.560000000000018 30.05294764350689
7.5900000000000185 30.172458471063425
7.620000000000019 30.291971166010256
7.650000000000019 30.4114820583501
7.680000000000019 30.53098803794688
7.7100000000000195 30.650486885012295
7.74000000000002 30.7699774684734
7.77000000000002 30.88945979790583
7.80000000000002 31.00893493422199
7.8300000000000205 31.128404780564924
7.860000000000021 31.24787178755933
7.890000000000021 31.367338614737243
7.920000000000021 31.486807792430376
7.9500000000000215 31.606281424506363
7.980000000000022 31.72576096524089
8.010000000000021 31.84524709123318
8.04000000000002 31.96473967701113
8.07000000000002 32.08423786949141
8.10000000000002 32.20374024488353
8.130000000000019 32.32324502287641
8.160000000000018 32.442750307728815
8.190000000000017 32.56225432508037
8.220000000000017 32.6817556263654
8.250000000000016 32.80125323865021
8.280000000000015 32.92074674577466
8.310000000000015 33.04023629597439
8.340000000000014 33.15972254062736
8.370000000000013 33.2792065167831
8.400000000000013 33.39868949188365
8.430000000000012 33.518172792583286
8.460000000000012 33.63765763944963
8.49000000000001 33.75714500740328
8.52000000000001 33.876635526365455
8.55000000000001 33.99612943153248
8.580000000000009 34.11562656563597
8.610000000000008 34.23512642856612
8.640000000000008 34.354628264801285
8.670000000000007 34.47413117602354
8.700000000000006 34.59363424296441
8.730000000000006 34.7131366408655
8.760000000000005 34.83263773539788
8.790000000000004 34.95213714754468
8.820000000000004 35.07163478304251
8.850000000000003 35.191130825013495
8.880000000000003 35.31062569328502
8.910000000000002 35.4301199778472
8.940000000000001 35.54961435666533
8.97 35.66910950891054
9.0 35.788606034605515
9.03 35.90810438933179
9.059999999999999 36.02760484161115
9.089999999999998 36.14710745621123
9.119999999999997 36.26661210361884
9.149999999999997 36.38611849212565
9.179999999999996 36.505626216914095
9.209999999999996 36.625134819190556
9.239999999999995 36.74464384749803
9.269999999999994 36.864152913610944
9.299999999999994 36.983661735239096
9.329999999999993 37.10317016259087
9.359999999999992 37.22267818574683
9.389999999999992 37.3421859237288
9.419999999999991 37.461693597946436
9.44999999999999 37.581201494323615
9.47999999999999 37.700709919809
9.50999999999999 37.820219159486605
9.539999999999988 37.93972944026366
9.569999999999988 38.05924090490859
9.599999999999987 38.17875359719571
9.629999999999987 38.29826745936253
9.659999999999986 38.417782342057826
9.689999999999985 38.53729802534052
9.719999999999985 38.65681424680225
9.749999999999984 38.7763307326836
9.779999999999983 38.89584722712397
9.809999999999983 39.01536351804568
9.839999999999982 39.134879454475204
9.869999999999981 39.25439495450945
9.89999999999998 39.373910004684774
9.92999999999998 39.49342465254704
9.95999999999998 39.61293898872007
9.989999999999979 39.732453122643484
10.019999999999978 39.84402260291607
10.049999999999978 39.935051504089266
10.079999999999977 39.99495247404692
10.109999999999976 40.017928064963286
10.139999999999976 40.003842666928584
10.169999999999975 39.95787022084928
10.199999999999974 39.88930439460666
10.229999999999974 39.80985836116814
10.259999999999973 39.73177421819822
10.289999999999973 39.66603831754485
10.319999999999972 39.620944955662615
10.349999999999971 39.601173451133036
10.37999999999997 39.60745511426428
10.40999999999997 39.636819101946415
10.43999999999997 39.683329711213645
10.469999999999969 39.73916977038
10.499999999999968 39.79589049180504
10.529999999999967 39.84564018683894
10.559999999999967 39.882202414598794
10.589999999999966 39.90171469170342
10.619999999999965 39.90299513666657
10.649999999999965 39.88746669731994
10.679999999999964 39.85872705121421
10.709999999999964 39.82185805170486
10.739999999999963 39.782595932708354
10.769999999999962 39.746490406974935
10.799999999999962 39.71816886417427
10.829999999999961 39.700795252178814
10.85999999999996 39.695777684438795
10.88999999999996 39.70273993929812
10.919999999999959 39.71973539630532
10.949999999999958 39.743651783608094
10.979999999999958 39.77073453676135
11.009999999999957 39.79714737320539
11.039999999999957 39.819491203729505
11.069999999999956 39.8352154613634
11.099999999999955 39.84287682902399
11.129999999999955 39.8422254526491
11.159999999999954 39.83412425902073
11.189999999999953 39.820329043976386
11.219999999999953 39.803172831912725
11.249999999999952 39.78520611118504
11.279999999999951 39.768844724017875
11.30999999999995 39.75607043996608
11.33999999999995 39.74821742969825
11.36999999999995 39.74586315070305
11.399999999999949 39.748826870144384
11.429999999999948 39.75626503729283
11.459999999999948 39.766841638781486
11.489999999999947 39.77894450028841
11.519999999999946 39.79091565857036
11.549999999999946 39.80126537116117
11.579999999999945 39.8088444271706
11.609999999999944 39.8129571815814
11.639999999999944 39.813406921385564
11.669999999999943 39.810474453960346
11.699999999999942 39.80483905292267
11.729999999999942 39.79745712197464
11.759999999999941 39.7894176225587
11.78999999999994 39.7817943094069
11.81999999999994 39.77551326532043
11.84999999999994 39.77125061614012
11.879999999999939 39.769370264397786
11.909999999999938 39.7699057461535
11.939999999999937 39.772584609385106
11.969999999999937 39.77688866540829
11.999999999999936 39.782139659622054
12.029999999999935 39.78759763974775
12.059999999999935 39.79255877000573
12.089999999999934 39.79644045920558
12.119999999999933 39.79884421452081
12.149999999999933 39.7995901770939
12.179999999999932 39.7987213227215
12.209999999999932 39.79647927639699
12.239999999999931 39.79325712427392
12.26999999999993 39.78953704901296
12.29999999999993 39.78582191179287
12.329999999999929 39.78256991545586
12.359999999999928 39.78014036086087
12.389999999999928 39.77875645648981
12.419999999999927 39.778488500155646
12.449999999999926 39.779257896427595
12.479999999999926 39.78085978012015
12.509999999999925 39.78299981732681
12.539999999999925 39.78533931750467
12.569999999999924 39.78754218792665
12.599999999999923 39.789317567712594
12.629999999999923 39.79045304066986
12.659999999999922 39.79083497006908
12.689999999999921 39.79045444477807
12.71999999999992 39.78939930923947
12.74999999999992 39.787834503312666
12.77999999999992 39.78597424987039
12.809999999999919 39.78405036079485
12.839999999999918 39.78228106517384
12.869999999999918 39.780844306699365
12.899999999999917 39.77985854022067
12.929999999999916 39.779372831570015
12.959999999999916 39.77936670997836
12.989999999999915 39.77975893586241
13.019999999999914 39.78042327785766
13.049999999999914 39.7812086614866
13.079999999999913 39.781960726276296
13.109999999999912 39.78254190645799
13.139999999999912 39.782847591252946
13.169999999999911 39.78281664252865
13.19999999999991 39.78243542172847
13.22999999999991 39.78173538027764
13.25999999999991 39.78078508804796
13.289999999999909 39.779678209094065
13.319999999999908 39.77851931459005
13.349999999999907 39.77740953715897
13.379999999999907 39.77643391136465
13.409999999999906 39.77565187707635
13.439999999999905 39.77509188822102
13.469999999999905 39.774750465413426
13.499999999999904 39.7745954288044
13.529999999999903 39.774572538420756
13.559999999999903 39.774614394042075
13.589999999999902 39.77465025905603
13.619999999999902 39.774615472729415
13.6499999999999 39.7744592788583
13.6799999999999 39.774150202723575
13.7099999999999 39.77367849466285
13.739999999999899 39.77305557184296
13.769999999999898 39.772310784582764
13.799999999999898 39.77148614330272
13.829999999999897 39.770629858634464
13.859999999999896 39.7697896207588
13.889999999999896 39.76900649859976
13.919999999999895 39.76831019092991
13.949999999999894 39.76771612746425
13.979999999999894 39.76722464110958
14.009999999999893 39.766822148624215
14.039999999999893 39.76648403019015
14.069999999999892 39.766178699974276
14.099999999999891 39.7658722481738
14.12999999999989 39.765533014144836
14.15999999999989 39.76513550646921
14.18999999999989 39.76466320935847
14.219999999999889 39.764110004057414
14.249999999999888 39.7634801361294
14.279999999999887 39.76278684389704
14.309999999999887 39.762049932283425
14.339999999999886 39.76129269198645
14.369999999999886 39.76053860562425
14.399999999999885 39.759808279410294
14.429999999999884 39.75911697933404
14.459999999999884 39.75847304212517
14.489999999999883 39.75787729838315
14.519999999999882 39.75732350620596
14.549999999999882 39.756799661913426
14.579999999999881 39.75628994809244
14.60999999999988 39.75577702277123
14.63999999999988 39.75524433396832
14.66999999999988 39.75467815909655
14.699999999999878 39.7540691260085
14.729999999999878 39.75341305763736
14.759999999999877 39.75271108367409
14.789999999999877 39.75196905840893
14.819999999999876 39.75119641305577
14.849999999999875 39.7504046313062
14.879999999999875 39.74960557261262
14.909999999999874 39.748809867606695
14.939999999999873 39.74802558481286
14.969999999999873 39.74725732114969
14.999999999999872 39.74650580192724
15.029999999999871 39.745768004975545
15.05999999999987 39.74503775201743
15.08999999999987 39.74430665795832
15.11999999999987 39.74356529350096
15.149999999999869 39.742804397708426
15.179999999999868 39.74201597955376
15.209999999999868 39.741194179373686
15.239999999999867 39.74033580065214
15.269999999999866 39.73944045949386
15.299999999999866 39.73851035737662
15.329999999999865 39.73754973719643
15.359999999999864 39.736564117796924
15.389999999999864 39.73555942270124
15.419999999999863 39.7345411231487
15.449999999999863 39.733513502399475
15.479999999999862 39.73247912582992
15.509999999999861 39.73143856563342
15.53999999999986 39.73039039840416
15.56999999999986 39.72933145397639
15.59999999999986 39.72825727029164
15.629999999999859 39.72716267967969
15.659999999999858 39.72604244787737
15.689999999999857 39.72489187964552
15.719999999999857 39.72370731531239
15.749999999999856 39.72248645583772
15.779999999999855 39.72122849160108
15.809999999999855 39.719934031801216
15.839999999999854 39.71860485816584
15.869999999999854 39.71724354570207
15.899999999999853 39.715853010516476
15.929999999999852 39.714436047954045
15.959999999999852 39.71299492365815
15.989999999999851 39.71153106158739
16.01999999999985 39.71004486015079
16.04999999999985 39.708535648512196
16.079999999999853 39.707001775553174
16.109999999999854 39.70544081608222
16.139999999999855 39.70384986112141
16.169999999999856 39.702225851916985
16.199999999999857 39.70056591119608
16.22999999999986 39.69886763156061
16.25999999999986 39.69712928304714
16.28999999999986 39.69534991719195
16.31999999999986 39.69352936107547
16.349999999999863 39.69166811209062
16.379999999999864 39.689767151999554
