# Results for "element" with Id # 2684774 for search config "initial" at position: x0: -250; y0: 0; z0: 103.448275862
# time VELOCITY_X
0.03 0.007136165218681734
0.06 0.029898368860307376
0.09 0.07571372274396158
0.12 0.14979732710129454
0.15 0.25460451350457736
0.18 0.38967255838587084
0.21 0.5517718562411972
0.24 0.7353147394757651
0.27 0.9329669701914206
0.30000000000000004 1.1363969072124716
0.33000000000000007 1.3370889879393897
0.3600000000000001 1.527144760419739
0.3900000000000001 1.6999974792501753
0.42000000000000015 1.8509756966503854
0.4500000000000002 1.9776668853786237
0.4800000000000002 2.0800526352883564
0.5100000000000002 2.1604103146751417
0.5400000000000003 2.2229996477216836
0.5700000000000003 2.27357363499195
0.6000000000000003 2.3187691450780332
0.6300000000000003 2.365441647318954
0.6600000000000004 2.4200102471565037
0.6900000000000004 2.487873967258843
0.7200000000000004 2.5729494479545925
0.7500000000000004 2.6773657893941283
0.7800000000000005 2.8013362061073996
0.8100000000000005 2.943210121237943
0.8400000000000005 3.0996943986791092
0.8700000000000006 3.266219142228895
0.9000000000000006 3.437412215610012
0.9300000000000006 3.6076376594555937
0.9600000000000006 3.771547267313337
0.9900000000000007 3.9245925885050243
1.0200000000000007 4.063447616456887
1.0500000000000007 4.186300786399437
1.0800000000000007 4.2929883416561
1.1100000000000008 4.384958221640078
1.1400000000000008 4.465072172791212
1.1700000000000008 4.537271207485526
1.2000000000000008 4.606143393236973
1.2300000000000009 4.676441690346732
1.260000000000001 4.752602395067213
1.290000000000001 4.838312147250678
1.320000000000001 4.936164268900414
1.350000000000001 5.047434848441097
1.380000000000001 5.171996633140204
1.410000000000001 5.308375519907285
1.440000000000001 5.453941069402424
1.470000000000001 5.605209797762307
1.500000000000001 5.7582290062090005
1.5300000000000011 5.9090005809433785
1.5600000000000012 6.0538997973969515
1.5900000000000012 6.190044501099617
1.6200000000000012 6.3155755401998475
1.6500000000000012 6.429819603278327
1.6800000000000013 6.533319436174429
1.7100000000000013 6.627731932604043
1.7400000000000013 6.7156096827707366
1.7700000000000014 6.8000942317688144
1.8000000000000014 6.884557983400618
1.8300000000000014 6.9722356780079044
1.8600000000000014 7.0658854681175525
1.8900000000000015 7.167514538807405
1.9200000000000015 7.278195733734788
1.9500000000000015 7.397990988517233
1.9800000000000015 7.525985651865955
2.0100000000000016 7.660426090290027
2.0400000000000014 7.798942365080285
2.070000000000001 7.938829194973803
2.100000000000001 8.077352781261306
2.130000000000001 8.212048955796597
2.1600000000000006 8.340979972284313
2.1900000000000004 8.462922783692374
2.22 8.57747037683449
2.25 8.68503840534988
2.28 8.786780604232938
2.3099999999999996 8.88442680953137
2.3399999999999994 8.980065539450335
2.369999999999999 9.075898165452623
2.399999999999999 9.173993295858354
2.429999999999999 9.276068289627261
2.4599999999999986 9.383320220582972
2.4899999999999984 9.496322017910504
2.5199999999999982 9.614991624623483
2.549999999999998 9.7386338365741
2.579999999999998 9.866046766270642
2.6099999999999977 9.995678341015939
2.6399999999999975 10.12581349748336
2.6699999999999973 10.254770204650892
2.699999999999997 10.381082357785857
2.729999999999997 10.503649939751165
2.7599999999999967 10.621841326527983
2.7899999999999965 10.7355386287945
2.8199999999999963 10.84512383248631
2.849999999999996 10.951410285933546
2.879999999999996 11.055530015055348
2.9099999999999957 11.158791751310432
2.9399999999999955 11.262527006998507
2.9699999999999953 11.367941881778293
2.999999999999995 11.475990656881997
3.029999999999995 11.587283928920455
3.0599999999999947 11.702039569512268
3.0899999999999945 11.820079686904863
3.1199999999999943 11.940871571557228
3.149999999999994 12.063605898321912
3.179999999999994 12.187301669380862
3.2099999999999937 12.31092489793483
3.2399999999999936 12.433507079057526
3.2699999999999934 12.55425014039916
3.299999999999993 12.672606691940237
3.329999999999993 12.788327739506594
3.3599999999999928 12.90147411205843
3.3899999999999926 13.01239221299576
3.4199999999999924 13.121658780182287
3.449999999999992 13.230002645178553
3.479999999999992 13.338213687103543
3.509999999999992 13.447050063775949
3.5399999999999916 13.557154371088432
3.5699999999999914 13.66898775348215
3.599999999999991 13.782788420268203
3.629999999999991 13.898557890655763
3.659999999999991 14.016074954739453
3.6899999999999906 14.13493418220521
3.7199999999999904 14.254603183982189
3.7499999999999902 14.374491008401119
3.77999999999999 14.494019184651357
3.80999999999999 14.612687088585025
3.8399999999999896 14.730124419654397
3.8699999999999894 14.846125479768046
3.8999999999999893 14.96066237834378
3.929999999999989 15.073876909630807
3.959999999999989 15.186053362190313
3.9899999999999887 15.297576611092694
4.019999999999989 15.408881294021045
4.049999999999989 15.52039853997405
4.079999999999989 15.632506587352548
4.10999999999999 15.745490759787787
4.13999999999999 15.859516820433678
4.16999999999999 15.974619905563259
4.19999999999999 16.090709282586563
4.229999999999991 16.20758733040936
4.259999999999991 16.32497958354516
4.289999999999991 16.44257161040333
4.319999999999991 16.56004797667503
4.349999999999992 16.677128619222607
4.379999999999992 16.793598571183367
4.409999999999992 16.909328033753344
4.439999999999992 17.024281127729317
4.469999999999993 17.138513102193542
4.499999999999993 17.252157149711397
4.529999999999993 17.36540311257946
4.559999999999993 17.478471155383115
4.589999999999994 17.591583843447175
4.619999999999994 17.704939999639613
4.649999999999994 17.818693251305405
4.679999999999994 17.932937417072115
4.709999999999995 18.047699919794002
4.739999999999995 18.162943387497336
4.769999999999995 18.27857463680552
4.799999999999995 18.3944594374266
4.829999999999996 18.510440897604987
4.859999999999996 18.62635906101023
4.889999999999996 18.742069341371185
4.919999999999996 18.857457744904224
4.949999999999997 18.972451356811604
4.979999999999997 19.08702324001288
5.009999999999997 19.201191614687684
5.039999999999997 19.31501386742992
5.069999999999998 19.428576494341087
5.099999999999998 19.5419824632839
5.129999999999998 19.6553376743353
5.159999999999998 19.76873815721014
5.189999999999999 19.882259433998907
5.219999999999999 19.995949105175296
5.249999999999999 20.109823260993778
5.279999999999999 20.22386682330515
5.31 20.338037460576686
5.34 20.452272337818464
5.37 20.566496695463563
5.4 20.680633117341156
5.430000000000001 20.79461036491604
5.460000000000001 20.90837078804561
5.490000000000001 21.021875574032627
5.520000000000001 21.135107405011993
5.550000000000002 21.248070425832783
5.580000000000002 21.360787742110173
5.610000000000002 21.473296939184483
5.640000000000002 21.5856443011389
5.670000000000003 21.697878500281167
5.700000000000003 21.81004452870866
5.730000000000003 21.922178554079892
5.760000000000003 22.03430422159282
5.790000000000004 22.146430717114818
5.820000000000004 22.25855267029814
5.850000000000004 22.370651762924247
5.880000000000004 22.48269972177657
5.910000000000005 22.594662237592377
5.940000000000005 22.70650328329052
5.970000000000005 22.81818930163296
6.000000000000005 22.92969278933692
6.030000000000006 23.040994905478087
6.060000000000006 23.15208687564227
6.090000000000006 23.26297012661035
6.120000000000006 23.373655239415
6.150000000000007 23.484159934830238
6.180000000000007 23.594506400960782
6.210000000000007 23.70471832813613
6.240000000000007 23.814818020948707
6.270000000000008 23.924823920089707
6.300000000000008 24.034748790387088
6.330000000000008 24.144598733243317
6.360000000000008 24.25437307467542
6.390000000000009 24.364065073738153
6.420000000000009 24.47366330389582
6.450000000000009 24.583153489338407
6.480000000000009 24.692520549029805
6.51000000000001 24.801750590475685
6.54000000000001 24.9108326166716
6.57000000000001 25.019759768720064
6.60000000000001 25.128529999768464
6.6300000000000106 25.23714614040525
6.660000000000011 25.345615393138186
6.690000000000011 25.453948364172927
6.720000000000011 25.56215778181335
6.7500000000000115 25.670257077488834
6.780000000000012 25.778259012431796
6.810000000000012 25.886174504533468
6.840000000000012 25.994011783545698
6.8700000000000125 26.10177594814171
6.900000000000013 26.209468945430967
6.930000000000013 26.317089948570384
6.960000000000013 26.424636046101483
6.9900000000000135 26.532103131838237
7.020000000000014 26.639486875656313
7.050000000000014 26.74678364950914
7.080000000000014 26.853991304851068
7.1100000000000145 26.961109720270915
7.140000000000015 27.068141068284202
7.170000000000015 27.175089795992218
7.200000000000015 27.281962342600572
7.2300000000000155 27.388766648326584
7.260000000000016 27.495511532321014
7.290000000000016 27.60220602533412
7.320000000000016 27.70885873969091
7.3500000000000165 27.8154773459447
7.380000000000017 27.92206821207475
7.410000000000017 28.028636235372524
7.440000000000017 28.13518487209714
7.4700000000000175 28.241716344094527
7.500000000000018 28.348231981254767
7.530000000000018 28.45473264643089
7.560000000000018 28.561219184657265
7.5900000000000185 28.66769283953372
7.620000000000019 28.774155589730004
7.650000000000019 28.880610369840362
7.680000000000019 28.98706115748893
7.7100000000000195 29.093512929077907
7.74000000000002 29.199971499206818
7.77000000000002 29.30644327410314
7.80000000000002 29.41293495365981
7.8300000000000205 29.51945322206508
7.860000000000021 29.626004464499285
7.890000000000021 29.7325945414906
7.920000000000021 29.839228643529726
7.9500000000000215 29.94591123576936
7.980000000000022 30.052646091353562
8.010000000000021 30.159436401617523
8.04000000000002 30.266284942170184
8.07000000000002 30.37319427121505
8.10000000000002 30.48016693104103
8.130000000000019 30.58720562818988
8.160000000000018 30.69431337232276
8.190000000000017 30.80149355957632
8.220000000000017 30.90874999633784
8.250000000000016 31.016086863926397
8.280000000000015 31.123508630478426
8.310000000000015 31.231019926158375
8.340000000000014 31.338625399564936
8.370000000000013 31.446329575546944
8.400000000000013 31.55413673064215
8.430000000000012 31.662050800438582
8.460000000000012 31.770075325609884
8.49000000000001 31.878213441197623
8.52000000000001 31.98646790458161
8.55000000000001 32.094841154445106
8.580000000000009 32.20333539117776
8.610000000000008 32.31195266667441
8.640000000000008 32.42069497149851
8.670000000000007 32.52956430920052
8.700000000000006 32.63856275013443
8.730000000000006 32.74769246108077
8.760000000000005 32.85695571200138
8.790000000000004 32.96635485214589
8.820000000000004 33.07589226750737
8.850000000000003 33.18557032406637
8.880000000000003 33.29539130413935
8.910000000000002 33.40535734260788
8.940000000000001 33.51547037050634
8.97 33.62573207079243
9.0 33.7361438548574
9.03 33.84670685665818
9.059999999999999 33.95742194698346
9.089999999999998 34.06828976556449
9.119999999999997 34.179310764375465
9.149999999999997 34.29048525347024
9.179999999999996 34.40181344392359
9.209999999999996 34.51329548525645
9.239999999999995 34.62493149461788
9.269999999999994 34.736721571202324
9.299999999999994 34.84866579473024
9.329999999999993 34.96076421310308
9.359999999999992 35.07301681899371
9.389999999999992 35.18542351906355
9.419999999999991 35.2979841010465
9.44999999999999 35.41069820531299
9.47999999999999 35.52356530339859
9.50999999999999 35.63658468982339
9.539999999999988 35.74975548311231
9.569999999999988 35.863076638661305
9.599999999999987 35.97654695878737
9.629999999999987 36.09016510541138
9.659999999999986 36.203929620639514
9.689999999999985 36.31783895400573
9.719999999999985 36.431891491237096
9.749999999999984 36.546085576762984
9.779999999999983 36.66041951924494
9.809999999999983 36.77489159387037
9.839999999999982 36.88950004377574
9.869999999999981 37.00424307988893
9.89999999999998 37.11911887875444
9.92999999999998 37.23412557438226
9.95999999999998 37.34926124702228
9.989999999999979 37.464523909191
10.019999999999978 37.572384053720235
10.049999999999978 37.66066848400754
10.079999999999977 37.71879325968245
10.109999999999976 37.74056428464806
10.139999999999976 37.725299116801445
10.169999999999975 37.67780555304009
10.199999999999974 37.60744205412156
10.229999999999974 37.526482644623
10.259999999999973 37.44808452993764
10.289999999999973 37.384208157576175
10.319999999999972 37.343832571664024
10.349999999999971 37.331741693380245
10.37999999999997 37.34804637418817
10.40999999999997 37.38847575037091
10.43999999999997 37.445343330399844
10.469999999999969 37.5089887829914
10.499999999999968 37.56943101507882
10.529999999999967 37.617950413413325
10.559999999999967 37.64834953305769
10.589999999999966 37.65771330165018
10.619999999999965 37.64658801080615
10.649999999999965 37.61860185950834
10.679999999999964 37.57963965249714
10.709999999999964 37.536745181019555
10.739999999999963 37.496949581254825
10.769999999999962 37.46621334665564
10.799999999999962 37.4486310078005
10.829999999999961 37.44599086373672
10.85999999999996 37.45771978510248
10.88999999999996 37.48118329913012
10.919999999999959 37.51226259817547
10.949999999999958 37.546097451494106
10.979999999999958 37.57786993936677
11.009999999999957 37.60350911093211
11.039999999999957 37.62021913739031
11.069999999999956 37.626768727653904
11.099999999999955 37.623521618112115
11.129999999999955 37.61222890433853
11.159999999999954 37.59563831851337
11.189999999999953 37.576997464213406
11.219999999999953 37.55953555486593
11.249999999999952 37.546002015953654
11.279999999999951 37.53832295860981
11.30999999999995 37.53741221865588
11.33999999999995 37.54314707273683
11.36999999999995 37.55449381834501
11.399999999999949 37.56974890384411
11.429999999999948 37.58684860076682
11.459999999999948 37.60369578786157
11.489999999999947 37.6184557966552
11.519999999999946 37.629782985023624
11.549999999999946 37.63695391713305
11.579999999999945 37.63989910209813
11.609999999999944 37.63914061404511
11.639999999999944 37.63565544441538
11.669999999999943 37.63069237359839
11.699999999999942 37.62557324727707
11.729999999999942 37.62150768111686
11.759999999999941 37.61944455198983
11.78999999999994 37.619975567415075
11.81999999999994 37.62329721207846
11.84999999999994 37.62922885692321
11.879999999999939 37.63727779734117
11.909999999999938 37.646737176519245
11.939999999999937 37.65680036240194
11.969999999999937 37.66667526143183
11.999999999999936 37.67568411096407
12.029999999999935 37.68333778005329
12.059999999999935 37.689378076675766
12.089999999999934 37.69378627187938
12.119999999999933 37.696760460144304
12.149999999999933 37.69866797183438
12.179999999999932 37.69998143678497
12.209999999999932 37.70120817669947
12.239999999999931 37.70282241433516
12.26999999999993 37.70520839102595
12.29999999999993 37.70862033352022
12.329999999999929 37.71316254525828
12.359999999999928 37.71879013633349
12.389999999999928 37.72532834662973
12.419999999999927 37.73250633948629
12.449999999999926 37.73999996059363
12.479999999999926 37.74747734843709
12.509999999999925 37.75464141549043
12.539999999999925 37.761264166695575
12.569999999999924 37.76720920437846
12.599999999999923 37.772440605842895
12.629999999999923 37.77701821446239
12.659999999999922 37.781081130512376
12.689999999999921 37.784822542859956
12.71999999999992 37.788459876368364
12.74999999999992 37.79220449982054
12.77999999999992 37.796234912812345
12.809999999999919 37.80067652584519
12.839999999999918 37.805590069043745
12.869999999999918 37.810969341447844
12.899999999999917 37.81674776065099
12.929999999999916 37.82281210415501
12.959999999999916 37.82902103326898
12.989999999999915 37.83522559923073
13.019999999999914 37.84128892257484
13.049999999999914 37.847102572035425
13.079999999999913 37.85259782619391
13.109999999999912 37.85775081422742
13.139999999999912 37.862581419735235
13.169999999999911 37.86714665686344
13.19999999999991 37.871529871950266
13.22999999999991 37.875827533823795
13.25999999999991 37.88013551986857
13.289999999999909 37.8845367031304
13.319999999999908 37.88909131007274
13.349999999999907 37.89383102922197
13.379999999999907 37.8987572949814
13.409999999999906 37.9038436026547
13.439999999999905 37.909041200655125
13.469999999999905 37.914287147680916
13.499999999999904 37.91951350271196
13.529999999999903 37.92465636424563
13.559999999999903 37.929663603011015
13.589999999999902 37.93450041742128
13.619999999999902 37.93915217609755
13.6499999999999 37.94362443167844
13.6799999999999 37.94794033728031
13.7099999999999 37.95213601628801
13.739999999999899 37.95625466333185
13.769999999999898 37.960340234976584
13.799999999999898 37.964431574606216
13.829999999999897 37.96855769298742
13.859999999999896 37.9727346870263
13.889999999999896 37.97696456223248
13.919999999999895 37.98123594715487
13.949999999999894 37.985526448684574
13.979999999999894 37.989806214070875
14.009999999999893 37.99404216890301
14.039999999999893 37.99820234194709
14.069999999999892 38.002259687871515
14.099999999999891 38.00619497178707
14.12999999999989 38.009998428509626
14.15999999999989 38.01367006938225
14.18999999999989 38.01721872433548
14.219999999999889 38.02066003394277
14.249999999999888 38.02401368946397
14.279999999999887 38.02730034068832
14.309999999999887 38.03053862547867
14.339999999999886 38.03374270580712
14.369999999999886 38.036920579450445
14.399999999999885 38.04007331988591
14.429999999999884 38.043195269957316
14.459999999999884 38.04627507818535
14.489999999999883 38.04929738696749
14.519999999999882 38.052244916554365
14.549999999999882 38.05510064623003
14.579999999999881 38.05784979044754
14.60999999999988 38.06048133024668
14.63999999999988 38.062988946870824
14.66999999999988 38.0653712974962
14.699999999999878 38.0676316501135
14.729999999999878 38.069776969558546
14.759999999999877 38.07181661118565
14.789999999999877 38.073760819895625
14.819999999999876 38.075619230220894
14.849999999999875 38.07739955838201
14.879999999999875 38.07910664354837
14.909999999999874 38.080741936802966
14.939999999999873 38.08230346046518
14.969999999999873 38.08378619643339
14.999999999999872 38.08518284447085
15.029999999999871 38.08648483562794
15.05999999999987 38.08768344204854
15.08999999999987 38.08877084887468
15.11999999999987 38.08974104090977
15.149999999999869 38.090590397656996
15.179999999999868 38.091317929863784
15.209999999999868 38.09192515186225
15.239999999999867 38.09241563573796
15.269999999999866 38.09279434150803
15.299999999999866 38.09306682949267
15.329999999999865 38.093238470736765
15.359999999999864 38.09331375286468
15.389999999999864 38.09329575326255
15.419999999999863 38.09318583882796
15.449999999999863 38.09298358863326
15.479999999999862 38.092686931026826
15.509999999999861 38.09229247376447
15.53999999999986 38.09179597736007
15.56999999999986 38.09119289374358
15.59999999999986 38.09047892122444
15.629999999999859 38.089650514416874
15.659999999999858 38.08870527536815
15.689999999999857 38.087642187908024
15.719999999999857 38.08646166888858
15.749999999999856 38.08516544894893
15.779999999999855 38.083756287647084
15.809999999999855 38.08223755103386
15.839999999999854 38.080612720210496
15.869999999999854 38.078884914028535
15.899999999999853 38.077056507791255
15.929999999999852 38.075128863803926
15.959999999999852 38.073102218095954
15.989999999999851 38.070975739816184
16.01999999999985 38.06874772278449
16.04999999999985 38.06641585790113
16.079999999999853 38.06397754449993
16.109999999999854 38.061430192692384
16.139999999999855 38.05877148129581
16.169999999999856 38.055999541791394
16.199999999999857 38.05311306756996
16.22999999999986 38.05011135048307
16.25999999999986 38.046994229339205
16.28999999999986 38.04376196216214
16.31999999999986 38.04041503814295
16.349999999999863 38.03695394517567
16.379999999999864 38.03337893185619
