# Results for "element" with Id # 2754668 for search config "initial" at position: x0: -250; y0: 0; z0: 375
# time VELOCITY_X
0.03 0.007343534011379068
0.06 0.030780483653361626
0.09 0.07799132533483552
0.12 0.1544076205066206
0.15 0.2626414988300909
0.18 0.4023057571077262
0.21 0.5701457697866981
0.24 0.7604366117166318
0.27 0.9655965342355832
0.30000000000000004 1.1769558215316258
0.33000000000000007 1.3856074899672768
0.3600000000000001 1.5832580036690742
0.3900000000000001 1.7629952217991693
0.42000000000000015 1.9198987818810405
0.4500000000000002 2.05143508345628
0.4800000000000002 2.1576031465605574
0.5100000000000002 2.240825591815357
0.5400000000000003 2.305606775700424
0.5700000000000003 2.3580038406917216
0.6000000000000003 2.404973214236991
0.6300000000000003 2.453663488384721
0.6600000000000004 2.510725738385159
0.6900000000000004 2.5817053730322543
0.7200000000000004 2.6705675025763367
0.7500000000000004 2.7793924386143076
0.7800000000000005 2.908261009987366
0.8100000000000005 3.0553321274078487
0.8400000000000005 3.2170983898985113
0.8700000000000006 3.3887903222145095
0.9000000000000006 3.564886991121382
0.9300000000000006 3.7396813669813946
0.9600000000000006 3.907843994849017
0.9900000000000007 4.064929297007612
1.0200000000000007 4.207775433669342
1.0500000000000007 4.334760687314938
1.0800000000000007 4.445895461703396
1.1100000000000008 4.5427471511817
1.1400000000000008 4.628212971890864
1.1700000000000008 4.706171107216888
1.2000000000000008 4.781051487816014
1.2300000000000009 4.8573732633211275
1.260000000000001 4.939296435686648
1.290000000000001 5.0302307373680515
1.320000000000001 5.132536702848153
1.350000000000001 5.2473431600391205
1.380000000000001 5.374493216452608
1.410000000000001 5.512618300119419
1.440000000000001 5.659327869381551
1.470000000000001 5.811491897648212
1.500000000000001 5.965584998993119
1.5300000000000011 6.118055845628181
1.5600000000000012 6.265683911185759
1.5900000000000012 6.405887872675521
1.6200000000000012 6.536956019028798
1.6500000000000012 6.6581781427334334
1.6800000000000013 6.769869529920881
1.7100000000000013 6.8732894598197305
1.7400000000000013 6.9704676360413345
1.7700000000000014 7.06396094556136
1.8000000000000014 7.156568969135651
1.8300000000000014 7.251039303489849
1.8600000000000014 7.349793009770477
1.8900000000000015 7.4546967505561765
1.9200000000000015 7.566902060495727
1.9500000000000015 7.686764488855255
1.9800000000000015 7.81384686484062
2.0100000000000016 7.947002456663164
2.0400000000000014 8.084526072906074
2.070000000000001 8.224354853382552
2.100000000000001 8.364296182396162
2.130000000000001 8.502258228683848
2.1600000000000006 8.636459259739702
2.1900000000000004 8.765595006196083
2.22 8.888948600123808
2.25 9.006434337558082
2.28 9.118573923346668
2.3099999999999996 9.22641106877309
2.3399999999999994 9.331376521512666
2.369999999999999 9.435120172356957
2.399999999999999 9.539329405169049
2.429999999999999 9.645553212321477
2.4599999999999986 9.755049905408214
2.4899999999999984 9.868672840604116
2.5199999999999982 9.98680390357275
2.549999999999998 10.109339113654112
2.579999999999998 10.235725164952076
2.6099999999999977 10.365040569736976
2.6399999999999975 10.496110789270851
2.6699999999999973 10.627643721192147
2.699999999999997 10.75837042258236
2.729999999999997 10.887176098018607
2.7599999999999967 11.013208101766885
2.7899999999999965 11.135950764380762
2.8199999999999963 11.255260876091315
2.849999999999996 11.371362154077481
2.879999999999996 11.484801474425323
2.9099999999999957 11.59637356620241
2.9399999999999955 11.707023844336135
2.9699999999999953 11.817740829010178
2.999999999999995 11.929450049765354
3.029999999999995 12.042920496763589
3.0599999999999947 12.158692740595583
3.0899999999999945 12.277035059661642
3.1199999999999943 12.397930633189766
3.149999999999994 12.521095443086393
3.179999999999994 12.646023329415257
3.2099999999999937 12.77205198109137
3.2399999999999936 12.898441762048904
3.2699999999999934 13.024458335945237
3.299999999999993 13.149450116458471
3.329999999999993 13.272912590445479
3.3599999999999928 13.394533379682684
3.3899999999999926 13.51421429954409
3.4199999999999924 13.632069344550416
3.449999999999992 13.748400174174076
3.479999999999992 13.863653001587425
3.509999999999992 13.978362561599575
3.5399999999999916 14.09308989338165
3.5699999999999914 14.208360946129847
3.599999999999991 14.324612519747866
3.629999999999991 14.442150892465028
3.659999999999991 14.561126823294236
3.6899999999999906 14.681528658444249
3.7199999999999904 14.803193237489559
3.7499999999999902 14.925832409898986
3.77999999999999 15.049071421838338
3.80999999999999 15.172494367308762
3.8399999999999896 15.295691403739
3.8699999999999894 15.418302536256597
3.8999999999999893 15.540053437143671
3.929999999999989 15.660779884029438
3.959999999999989 15.780438831468805
3.9899999999999887 15.899105697381048
4.019999999999989 16.01695897201248
4.049999999999989 16.134254572571443
4.079999999999989 16.25129334186244
4.10999999999999 16.36838563478605
4.13999999999999 16.485817019456803
4.16999999999999 16.603818758605705
4.19999999999999 16.722545998228007
4.229999999999991 16.842065578205833
4.259999999999991 16.962354215915862
4.289999999999991 17.08330664022034
4.319999999999991 17.20475219069872
4.349999999999992 17.32647755835345
4.379999999999992 17.448252807779177
4.409999999999992 17.569857627900184
4.439999999999992 17.691104912437478
4.469999999999993 17.811859236127404
4.499999999999993 17.932048499823807
4.529999999999993 18.051667874191516
4.559999999999993 18.1707760769079
4.589999999999994 18.289484863787212
4.619999999999994 18.407943313316032
4.649999999999994 18.526318965108977
4.679999999999994 18.644778096661454
4.709999999999995 18.763467378676232
4.739999999999995 18.882498859426295
4.769999999999995 19.001939739728382
4.799999999999995 19.121807779225794
4.829999999999996 19.242072494791387
4.859999999999996 19.362661659889532
4.889999999999996 19.483472049829185
4.919999999999996 19.60438296962083
4.949999999999997 19.72527087800252
4.979999999999997 19.846023401324075
5.009999999999997 19.96655120308634
5.039999999999997 20.086796510365307
5.069999999999998 20.206737547784673
5.099999999999998 20.32638863575513
5.129999999999998 20.445796216364396
5.159999999999998 20.565031511221523
5.189999999999999 20.684180854816688
5.219999999999999 20.803334943502087
5.249999999999999 20.92257828625695
5.279999999999999 21.04198003988371
5.31 21.1615871801883
5.34 21.281420635748084
5.37 21.401474635058143
5.4 21.521719134989574
5.430000000000001 21.64210485757368
5.460000000000001 21.76257019231528
5.490000000000001 21.883049055805508
5.520000000000001 22.003478747211474
5.550000000000002 22.123806899850234
5.580000000000002 22.243996789686342
5.610000000000002 22.364030497143325
5.640000000000002 22.483909697941122
5.670000000000003 22.60365414584235
5.700000000000003 22.723298173405986
5.730000000000003 22.842885743924533
5.760000000000003 22.962464721412907
5.790000000000004 23.082081072711937
5.820000000000004 23.20177367802352
5.850000000000004 23.321570311093936
5.880000000000004 23.441485178194057
5.910000000000005 23.56151819865731
5.940000000000005 23.681655995391605
5.970000000000005 23.801874365561503
6.000000000000005 23.92214184534534
6.030000000000006 24.042423879581168
6.060000000000006 24.162687068857835
6.090000000000006 24.282902991856652
6.120000000000006 24.403051183977386
6.150000000000007 24.523120979943265
6.180000000000007 24.643112081038502
6.210000000000007 24.76303386668488
6.240000000000007 24.882903616525958
6.270000000000008 25.00274392624047
6.300000000000008 25.12257967659805
6.330000000000008 25.242434943278916
6.360000000000008 25.362330216266656
6.390000000000009 25.48228023595198
6.420000000000009 25.602292659243716
6.450000000000009 25.722367656278074
6.480000000000009 25.84249842122207
6.51000000000001 25.962672474033468
6.54000000000001 26.082873543097797
6.57000000000001 26.203083765803285
6.60000000000001 26.323285923415085
6.6300000000000106 26.44346544194856
6.660000000000011 26.563611937606403
6.690000000000011 26.683720154406608
6.720000000000011 26.80379022474579
6.7500000000000115 26.923827269200785
6.780000000000012 27.043840429681033
6.810000000000012 27.16384149142476
6.840000000000012 27.28384328737304
6.8700000000000125 27.403858091260496
6.900000000000013 27.523896191968824
6.930000000000013 27.643964807165027
6.960000000000013 27.764067442463748
6.9900000000000135 27.884203741397556
7.020000000000014 28.00436980935899
7.050000000000014 28.12455893892124
7.080000000000014 28.244762621030844
7.1100000000000145 28.36497170014345
7.140000000000015 28.485177524084207
7.170000000000015 28.605372950685155
7.200000000000015 28.72555310001865
7.2300000000000155 28.84571578045095
7.260000000000016 28.965861559822642
7.290000000000016 29.085993498774123
7.320000000000016 29.20611660251629
7.3500000000000165 29.32623707767123
7.380000000000017 29.446361497807132
7.410000000000017 29.566495984969947
7.440000000000017 29.686645504979488
7.4700000000000175 29.80681335342009
7.500000000000018 29.927000880779346
7.530000000000018 30.047207473114582
7.560000000000018 30.167430772065803
7.5900000000000185 30.287667090297795
7.620000000000019 30.407911957866823
7.650000000000019 30.528160723828012
7.680000000000019 30.648409136182945
7.7100000000000195 30.768653831078417
7.74000000000002 30.888892678369906
7.77000000000002 31.009124951869694
7.80000000000002 31.12935131638796
7.8300000000000205 31.24957364648256
7.860000000000021 31.369794711127394
7.890000000000021 31.49001777231179
7.920000000000021 31.610246152718442
7.9500000000000215 31.730482827278358
7.980000000000022 31.850730086929275
8.010000000000021 31.97098931006417
8.04000000000002 32.091260862006244
8.07000000000002 32.21154412542095
8.10000000000002 32.331837648554725
8.130000000000019 32.45213938458939
8.160000000000018 32.572446986020985
8.190000000000017 32.692758114068305
8.220000000000017 32.813070724265685
8.250000000000016 32.93338329508072
8.280000000000015 33.0536949758184
8.310000000000015 33.17400564133604
8.340000000000014 33.29431585370884
8.370000000000013 33.41462674233499
8.400000000000013 33.53493982314832
8.430000000000012 33.655256783717
8.460000000000012 33.77557926299621
8.49000000000001 33.89590865339103
8.52000000000001 34.016245947370706
8.55000000000001 34.13659164465923
8.580000000000009 34.256945726943414
8.610000000000008 34.37730769791429
8.640000000000008 34.49767667889176
8.670000000000007 34.61805154490793
8.700000000000006 34.7384310811578
8.730000000000006 34.85881413894089
8.760000000000005 34.97919977209284
8.790000000000004 35.09958733792191
8.820000000000004 35.21997655344194
8.850000000000003 35.340367503034
8.880000000000003 35.46076060006127
8.910000000000002 35.58115651062363
8.940000000000001 35.70155605181452
8.97 35.82196007889878
9.0 35.94236937606922
9.03 36.0627845637252
9.059999999999999 36.183206032910334
9.089999999999998 36.3036339128621
9.119999999999997 36.42406807345469
9.149999999999997 36.54450815944358
9.179999999999996 36.66495364986643
9.209999999999996 36.785403933573676
9.239999999999995 36.90585839033426
9.269999999999994 37.026316467276494
9.299999999999994 37.146777740599376
9.329999999999993 37.267241956743916
9.359999999999992 37.3877090488138
9.389999999999992 37.50817912838619
9.419999999999991 37.628652455502234
9.44999999999999 37.74912939200824
9.47999999999999 37.86961034551733
9.50999999999999 37.99009571191603
9.539999999999988 38.1105858245425
9.569999999999988 38.23108091561848
9.599999999999987 38.35158109294045
9.629999999999987 38.472086333482736
9.659999999999986 38.59259649383068
9.689999999999985 38.71311133537783
9.719999999999985 38.83363055984567
9.749999999999984 38.95415384987575
9.779999999999983 39.07468090908378
9.809999999999983 39.19521149763905
9.839999999999982 39.31574545713835
9.869999999999981 39.43628272321793
9.89999999999998 39.55682332642451
9.92999999999998 39.677367383324
9.95999999999998 39.79791507459984
9.989999999999979 39.91846661517805
10.019999999999978 40.03108602561393
10.049999999999978 40.12315988832837
10.079999999999977 40.18411214871043
10.109999999999976 40.20819564006476
10.139999999999976 40.19531327895875
10.169999999999975 40.150619850232744
10.199999999999974 40.08331047329834
10.229999999999974 40.00493061021369
10.259999999999973 39.92752551738459
10.289999999999973 39.8619142143771
10.319999999999972 39.816313585985895
10.349999999999971 39.795460013079165
10.37999999999997 39.80029125504575
10.40999999999997 39.828170985204366
10.43999999999997 39.873570627513274
10.469999999999969 39.92907352247344
10.499999999999968 39.98653826511297
10.529999999999967 40.03825268462836
10.559999999999967 40.07792645253954
10.589999999999966 40.101405177751666
10.619999999999965 40.10703650224143
10.649999999999965 40.09567151125553
10.679999999999964 40.07033503253513
10.709999999999964 40.03563920673094
10.739999999999963 39.9970413053967
10.769999999999962 39.96005714321157
10.799999999999962 39.929536156998935
10.829999999999961 39.909085938465026
10.85999999999996 39.900706731255354
10.88999999999996 39.90466433225556
10.919999999999959 39.91959739411361
10.949999999999958 39.942825993376786
10.979999999999958 39.970805583176954
11.009999999999957 39.999656315448235
11.039999999999957 40.02569341221171
11.069999999999956 40.045889742890736
11.099999999999955 40.05821585115582
11.129999999999955 40.06182291969252
11.159999999999954 40.05705754553483
11.189999999999953 40.0453201895545
11.219999999999953 40.02879866950925
11.249999999999952 40.0101217328
11.279999999999951 39.9919842583463
11.30999999999995 39.97679481475422
11.33999999999995 39.96638902712317
11.36999999999995 39.96184002599287
11.399999999999949 39.96338221937718
11.429999999999948 39.97044882314451
11.459999999999948 39.98180907435816
11.489999999999947 39.99577950321708
11.519999999999946 40.010476229107155
11.549999999999946 40.024072628437025
11.579999999999945 40.03502886551475
11.609999999999944 40.04226607090518
11.639999999999944 40.045267272853565
11.669999999999943 40.04409808177874
11.699999999999942 40.03935105483717
11.729999999999942 40.03202715733977
11.759999999999941 40.02337468755549
11.78999999999994 40.01470977707528
11.81999999999994 40.007242896246446
11.84999999999994 40.001932980479424
11.879999999999939 39.999385479951954
11.909999999999938 39.999803721746225
11.939999999999937 40.00299545535723
11.969999999999937 40.0084292968408
11.999999999999936 40.01532989015019
12.029999999999935 40.0227965613952
12.059999999999935 40.02992845254883
12.089999999999934 40.03593962271314
12.119999999999933 40.040250186513774
12.149999999999933 40.042543730324795
12.179999999999932 40.04278635085764
12.209999999999932 40.04120796143877
12.239999999999931 40.038251326661
12.26999999999993 40.034497976170684
12.29999999999993 40.030582389771176
12.329999999999929 40.0271064107203
12.359999999999928 40.02456484448115
12.389999999999928 40.02329087151641
12.419999999999927 40.02342666017641
12.449999999999926 40.024920895204275
12.479999999999926 40.027551339659695
12.509999999999925 40.03096748230257
12.539999999999925 40.034746152340745
12.569999999999924 40.03845187900088
12.599999999999923 40.04169383756628
12.629999999999923 40.04417232673302
12.659999999999922 40.04570965507136
12.689999999999921 40.04626274759923
12.71999999999992 40.045917370310676
12.74999999999992 40.04486625620818
12.77999999999992 40.043375306297364
12.809999999999919 40.041743221126126
12.839999999999918 40.04026031927921
12.869999999999918 40.03917191492956
12.899999999999917 40.038650586340246
12.929999999999916 40.03878015498127
12.959999999999916 40.0395524457231
12.989999999999915 40.04087616347326
13.019999999999914 40.04259571746131
13.049999999999914 40.044516726740895
13.079999999999913 40.046434357942324
13.109999999999912 40.04816060568789
13.139999999999912 40.0495470885514
13.169999999999911 40.05050080498048
13.19999999999991 40.050991417816604
13.22999999999991 40.051049847145734
13.25999999999991 40.05075909191394
13.289999999999909 40.05023912359457
13.319999999999908 40.04962829834194
13.349999999999907 40.049063977614175
13.379999999999907 40.04866491558761
13.409999999999906 40.04851753403359
13.439999999999905 40.04866752456546
13.469999999999905 40.049117411868885
13.499999999999904 40.04982988730758
13.529999999999903 40.050735999128705
13.559999999999903 40.051746732843895
13.589999999999902 40.052766203830316
13.619999999999902 40.053704630260576
13.6499999999999 40.05448943230473
13.6799999999999 40.05507318586672
13.7099999999999 40.05543766891755
13.739999999999899 40.05559380184443
13.769999999999898 40.05557783292207
13.799999999999898 40.05544456926249
13.829999999999897 40.05525877432366
13.859999999999896 40.05508599162775
13.889999999999896 40.05498402020356
13.919999999999895 40.05499608630616
13.949999999999894 40.055146451492476
13.979999999999894 40.05543882339818
14.009999999999893 40.05585754384192
14.039999999999893 40.056371179202124
14.069999999999892 40.056937857071574
14.099999999999891 40.05751151955476
14.12999999999989 40.05804821572542
14.15999999999989 40.05851161911828
14.18999999999989 40.058877113623836
14.219999999999889 40.05913403765276
14.249999999999888 40.05928595035235
14.279999999999887 40.059349039761855
14.309999999999887 40.05934902611579
14.339999999999886 40.05931708202505
14.369999999999886 40.05928536820487
14.399999999999885 40.05928278838577
14.429999999999884 40.059331493652294
14.459999999999884 40.059444528029324
14.489999999999883 40.05962482869015
14.519999999999882 40.059865604516816
14.549999999999882 40.06015193658358
14.579999999999881 40.06046329722186
14.60999999999988 40.06077659469396
14.63999999999988 40.06106931441256
14.66999999999988 40.061322343888875
14.699999999999878 40.06152214129351
14.729999999999878 40.06166201849996
14.759999999999877 40.06174244290325
14.789999999999877 40.061770393322576
14.819999999999876 40.06175792719144
14.849999999999875 40.061720202523816
14.879999999999875 40.06167325047139
14.909999999999874 40.06163180129603
14.939999999999873 40.06160743772118
14.969999999999873 40.061607289478374
14.999999999999872 40.06163339458426
15.029999999999871 40.061682759145185
15.05999999999987 40.06174805389264
15.08999999999987 40.06181880979189
15.11999999999987 40.061882925655624
15.149999999999869 40.061928272732175
15.179999999999868 40.06194418266021
15.209999999999868 40.06192264053999
15.239999999999867 40.061859054693414
15.269999999999866 40.06175252814958
15.299999999999866 40.06160563169242
15.329999999999865 40.06142374743597
15.359999999999864 40.061214101438495
15.389999999999864 40.06098463408487
15.419999999999863 40.0607428652837
15.449999999999863 40.06049490011887
15.479999999999862 40.06024469107942
15.509999999999861 40.0599936279438
15.53999999999986 40.059740484381436
15.56999999999986 40.05948170033135
15.59999999999986 40.05921194150548
15.629999999999859 40.05892484180683
15.659999999999858 40.058613826124834
15.689999999999857 40.05827290148607
15.719999999999857 40.05789731819749
15.749999999999856 40.05748401993971
15.779999999999855 40.057031846365504
15.809999999999855 40.05654148127921
15.839999999999854 40.0560151715635
15.869999999999854 40.055456267387115
15.899999999999853 40.05486865621852
15.929999999999852 40.054256172173055
15.959999999999852 40.05362205897242
15.989999999999851 40.05296854658072
16.01999999999985 40.05229658705723
16.04999999999985 40.05160577101637
16.079999999999853 40.050894419862445
16.109999999999854 40.05015983400633
16.139999999999855 40.0493986550877
16.169999999999856 40.04860728952705
16.199999999999857 40.04778233342719
16.22999999999986 40.04692094533322
16.25999999999986 40.04602112063229
16.28999999999986 40.04508183831867
16.31999999999986 40.04410307092726
16.349999999999863 40.0430856686811
16.379999999999864 40.04203113982527
