# Results for "element" with Id # 2683262 for search config "initial" at position: x0: -250; y0: 0; z0: 271.551724138
# time VELOCITY_X
0.03 0.007258505829499832
0.06 0.03042164015187087
0.09 0.07707381210796575
0.12 0.1525711403411748
0.15 0.25947901877017354
0.18 0.3973980393533241
0.21 0.5630994850341038
0.24 0.7509226868459917
0.27 0.9533841638677196
0.30000000000000004 1.1619370622895124
0.33000000000000007 1.3678080111661133
0.3600000000000001 1.5628314633673352
0.3900000000000001 1.7402014586050714
0.42000000000000015 1.8950688620047689
0.4500000000000002 2.024928516483745
0.4800000000000002 2.129763729085738
0.5100000000000002 2.211942170828051
0.5400000000000003 2.275883936181642
0.5700000000000003 2.3275455578741395
0.6000000000000003 2.3737804196026797
0.6300000000000003 2.4216446549577424
0.6600000000000004 2.4777181969365496
0.6900000000000004 2.547504097461634
0.7200000000000004 2.634957463369011
0.7500000000000004 2.7421802008715668
0.7800000000000005 2.8693011325084763
0.8100000000000005 3.0145442893566248
0.8400000000000005 3.1744722441297277
0.8700000000000006 3.344376924168835
0.9000000000000006 3.5187780692757626
0.9300000000000006 3.6919802239336708
0.9600000000000006 3.8586338073527338
0.9900000000000007 4.0142454608724005
1.0200000000000007 4.155588029310351
1.0500000000000007 4.280971214479608
1.0800000000000007 4.390349149798179
1.1100000000000008 4.485259052428083
1.1400000000000008 4.568603377882648
1.1700000000000008 4.644304107035122
1.2000000000000008 4.71686993856014
1.2300000000000009 4.790924019001678
1.260000000000001 4.870741129408066
1.290000000000001 4.9598394300886826
1.320000000000001 5.060663995580959
1.350000000000001 5.1743887176627
1.380000000000001 5.300850876596533
1.410000000000001 5.438619866278137
1.440000000000001 5.585189070590684
1.470000000000001 5.737268548468355
1.500000000000001 5.891146849167759
1.5300000000000011 6.043083822236513
1.5600000000000012 6.1896935131415365
1.5900000000000012 6.328277752553855
1.6200000000000012 6.457076824464891
1.6500000000000012 6.575413236774533
1.6800000000000013 6.68371688826501
1.7100000000000013 6.783433321561773
1.7400000000000013 6.8768295075302435
1.7700000000000014 6.966722159050787
1.8000000000000014 7.05616074012841
1.8300000000000014 7.14810053471099
1.8600000000000014 7.245100318702193
1.8900000000000015 7.3490748259917815
1.9200000000000015 7.461125049217724
1.9500000000000015 7.581460411549554
1.9800000000000015 7.709416949310776
2.0100000000000016 7.843565750547681
2.0400000000000014 7.9818968946392825
2.070000000000001 8.122056815956327
2.100000000000001 8.261612082306442
2.130000000000001 8.398310542522951
2.1600000000000006 8.530311945941058
2.1900000000000004 8.656364327206758
2.22 8.775909259672515
2.25 8.889107612341027
2.28 8.996786646858046
2.3099999999999996 9.10031799788396
2.3399999999999994 9.201443260710082
2.369999999999999 9.30206878831936
2.399999999999999 9.404053460176206
2.429999999999999 9.509012606524703
2.4599999999999986 9.618158213895555
2.4899999999999984 9.732190568896325
2.5199999999999982 9.85125021846349
2.549999999999998 9.974932304983145
2.579999999999998 10.102358642010072
2.6099999999999977 10.2322969954712
2.6399999999999975 10.363312471195803
2.6699999999999973 10.493933118286945
2.699999999999997 10.622811084196092
2.729999999999997 10.748861958151673
2.7599999999999967 10.871368117169569
2.7899999999999965 10.990036527496088
2.8199999999999963 11.105006998079306
2.849999999999996 11.216812607152395
2.879999999999996 11.32629927258064
2.9099999999999957 11.434515600055784
2.9399999999999955 11.542586812653036
2.9699999999999953 11.651587522288196
2.999999999999995 11.762427367840592
3.029999999999995 11.875761303423015
3.0599999999999947 11.991932946031366
3.0899999999999945 12.110955300873657
3.1199999999999943 12.232528858591808
3.149999999999994 12.356092980047487
3.179999999999994 12.480903051655005
3.2099999999999937 12.606123459061836
3.2399999999999936 12.73092519875318
3.2699999999999934 12.85457702259328
3.299999999999993 12.976520323476176
3.329999999999993 13.096420336179271
3.3599999999999928 13.214189303135623
3.3899999999999926 13.329980679242928
3.4199999999999924 13.444156783813867
3.449999999999992 13.5572351667225
3.479999999999992 13.669821042587563
3.509999999999992 13.782534256994436
3.5399999999999916 13.895939326686337
3.5699999999999914 14.010486202201225
3.599999999999991 14.126467698296983
3.629999999999991 14.24399728549393
3.659999999999991 14.363008414054677
3.6899999999999906 14.483274047535769
3.7199999999999904 14.604442893945842
3.7499999999999902 14.726087168306883
3.77999999999999 14.847755744642567
3.80999999999999 14.969026339263955
3.8399999999999896 15.089550886079182
3.8699999999999894 15.209089418862881
3.8999999999999893 15.327529400209563
3.929999999999989 15.44488930204414
3.959999999999989 15.561307128211622
3.9899999999999887 15.677016244724987
4.019999999999989 15.79231217120469
4.049999999999989 15.90751475726362
4.079999999999989 16.02293037592611
4.10999999999999 16.138818424607678
4.13999999999999 16.25536561704866
4.16999999999999 16.372670404095306
4.19999999999999 16.49073853414923
4.229999999999991 16.609489425117832
4.259999999999991 16.728771809726954
4.289999999999991 16.848386180997228
4.319999999999991 16.968110975127424
4.349999999999992 17.08772923560072
4.379999999999992 17.207052694947023
4.409999999999992 17.325940739493856
4.439999999999992 17.444312501736768
4.469999999999993 17.562151245810234
4.499999999999993 17.67950115707091
4.529999999999993 17.796457501968757
4.559999999999993 17.91315180576484
4.589999999999994 18.02973412817809
4.619999999999994 18.146354678292994
4.649999999999994 18.263146900400397
4.679999999999994 18.380213822678247
4.709999999999995 18.497618941647865
4.739999999999995 18.615382297895195
4.769999999999995 18.733481758271964
4.799999999999995 18.851858933731787
4.829999999999996 18.97042868296444
4.859999999999996 19.089090841063793
4.889999999999996 19.20774267043425
4.919999999999996 19.326290578547702
4.949999999999997 19.444659847532662
4.979999999999997 19.56280144808265
5.009999999999997 19.680695414097535
5.039999999999997 19.798350685305035
5.069999999999998 19.915801727087086
5.099999999999998 20.033102568364754
5.129999999999998 20.150319140222226
5.159999999999998 20.26752090865463
5.189999999999999 20.38477279607401
5.219999999999999 20.50212826868664
5.249999999999999 20.619624266994414
5.279999999999999 20.7372783943915
5.31 20.855088494319315
5.34 20.973034471302164
5.37 21.091081973920147
5.4 21.209187378612757
5.430000000000001 21.327303416946524
5.460000000000001 21.44538476472401
5.490000000000001 21.563392972081196
5.520000000000001 21.681300234409658
5.550000000000002 21.799091671589874
5.580000000000002 21.91676597520101
5.610000000000002 22.03433447701477
5.640000000000002 22.151818865191252
5.670000000000003 22.269247907549417
5.700000000000003 22.386653627637525
5.730000000000003 22.504067406450993
5.760000000000003 22.621516455905077
5.790000000000004 22.739021035961017
5.820000000000004 22.856592674533584
5.850000000000004 22.97423351689121
5.880000000000004 23.091936794022455
5.910000000000005 23.209688272761102
5.940000000000005 23.32746844955143
5.970000000000005 23.445255180930538
6.000000000000005 23.56302641816222
6.030000000000006 23.680762723374848
6.060000000000006 23.79844929406825
6.090000000000006 23.91607729953659
6.120000000000006 24.033644427077476
6.150000000000007 24.15115463357688
6.180000000000007 24.26861719073128
6.210000000000007 24.3860451875637
6.240000000000007 24.503453704884862
6.270000000000008 24.620857898982713
6.300000000000008 24.73827122365797
6.330000000000008 24.855703986644723
6.360000000000008 24.97316238383236
6.390000000000009 25.090648087788573
6.420000000000009 25.208158396524883
6.450000000000009 25.325686881271686
6.480000000000009 25.44322442020526
6.51000000000001 25.56076046823256
6.54000000000001 25.678284392785844
6.57000000000001 25.795786715493396
6.60000000000001 25.9132601224971
6.6300000000000106 26.03070014107352
6.660000000000011 26.148105429137168
6.690000000000011 26.265477674536715
6.720000000000011 26.382821146002208
6.7500000000000115 26.500141975704885
6.780000000000012 26.617447280063338
6.810000000000012 26.734744234371014
6.840000000000012 26.85203921519182
6.8700000000000125 26.96933710617955
6.900000000000013 27.086640834931607
6.930000000000013 27.203951178801606
6.960000000000013 27.3212668393515
6.9900000000000135 27.438584754296897
7.020000000000014 27.555900592102176
7.050000000000014 27.67320935544706
7.080000000000014 27.790506015049825
7.1100000000000145 27.90778609662668
7.140000000000015 28.02504615482446
7.170000000000015 28.14228408860695
7.200000000000015 28.259499273147338
7.2300000000000155 28.376692508308988
7.260000000000016 28.493865804067703
7.290000000000016 28.611022041636247
7.320000000000016 28.7281645595375
7.3500000000000165 28.845296719208577
7.380000000000017 28.962421502845785
7.410000000000017 29.0795411882214
7.440000000000017 29.196657132506083
7.4700000000000175 29.313769681416932
7.500000000000018 29.430878204155274
7.530000000000018 29.547981240607278
7.560000000000018 29.665076734566686
7.5900000000000185 29.782162318780216
7.620000000000019 29.899235614278947
7.650000000000019 30.016294507597106
7.680000000000019 30.133337375195637
7.7100000000000195 30.250363232873553
7.74000000000002 30.36737179845897
7.77000000000002 30.484363466878698
7.80000000000002 30.601339207635895
7.8300000000000205 30.71830040300031
7.860000000000021 30.835248650209028
7.890000000000021 30.952185553297817
7.920000000000021 31.069112530163956
7.9500000000000215 31.186030655795737
7.980000000000022 31.302940557966817
8.010000000000021 31.41984237288066
8.04000000000002 31.53673576187812
8.07000000000002 31.65361998298846
8.10000000000002 31.77049400425117
8.130000000000019 31.887356642382304
8.160000000000018 32.004206708493186
8.190000000000017 32.12104314301425
8.220000000000017 32.23786512530284
8.250000000000016 32.35467214694742
8.280000000000015 32.471464042181005
8.310000000000015 32.58824097500088
8.340000000000014 32.70500338774394
8.370000000000013 32.82175192042299
8.400000000000013 32.93848731223272
8.430000000000012 33.055210298738544
8.460000000000012 33.171921516848684
8.49000000000001 33.28862142873975
8.52000000000001 33.40531027135353
8.55000000000001 33.521988035701376
8.580000000000009 33.63865447662092
8.610000000000008 33.75530914884231
8.640000000000008 33.8719514634822
8.670000000000007 33.98858075787578
8.700000000000006 34.10519636920657
8.730000000000006 34.221797702984375
8.760000000000005 34.33838428954556
8.790000000000004 34.45495581952385
8.820000000000004 34.57151215825274
8.850000000000003 34.68805333789039
8.880000000000003 34.80457952947248
8.910000000000002 34.92109099947627
8.940000000000001 35.037588057443514
8.97 35.154071001104825
9.0 35.27054006651939
9.03 35.386995387389646
9.059999999999999 35.503436969525985
9.089999999999998 35.619864682164426
9.119999999999997 35.73627826582988
9.149999999999997 35.852677353457615
9.179999999999996 35.969061501593224
9.209999999999996 36.08543022815655
9.239999999999995 36.20178305250698
9.269999999999994 36.318119531856425
9.299999999999994 36.43443928813896
9.329999999999993 36.550742025449395
9.359999999999992 36.66702753465038
9.389999999999992 36.78329568590124
9.419999999999991 36.89954641118932
9.44999999999999 37.01577968002512
9.47999999999999 37.13199547190684
9.50999999999999 37.24819375046215
9.539999999999988 37.36437444234897
9.569999999999988 37.48053742343994
9.599999999999987 37.596682509250975
9.629999999999987 37.71280945190638
9.659999999999986 37.828917946127135
9.689999999999985 37.945007644481905
9.719999999999985 38.06107817796561
9.749999999999984 38.17712917837264
9.779999999999983 38.29316029670679
9.809999999999983 38.40917122091722
9.839999999999982 38.525161689047785
9.869999999999981 38.64113149692779
9.89999999999998 38.7570805001958
9.92999999999998 38.87300861087542
9.95999999999998 38.98891578551945
9.989999999999979 39.104802007537046
10.019999999999978 39.21273082201718
10.049999999999978 39.3001017557722
10.079999999999977 39.35627576570839
10.109999999999976 39.375384366557846
10.139999999999976 39.35727770525743
10.169999999999975 39.307246245955675
10.199999999999974 39.234862006934364
10.229999999999974 39.1522421568365
10.259999999999973 39.072057882047076
10.289999999999973 39.00561282218058
10.319999999999972 38.9612757880257
10.349999999999971 38.94347494299039
10.37999999999997 38.95235938313316
10.40999999999997 38.98412587642395
10.43999999999997 39.031909395635296
10.469999999999969 39.087059147840506
10.499999999999968 39.14057664418743
10.529999999999967 39.184484050005004
10.559999999999967 39.2129195870639
10.589999999999966 39.22281556777577
10.619999999999965 39.2140928953367
10.649999999999965 39.18938821646116
10.679999999999964 39.15340197832129
10.709999999999964 39.11200572174418
10.739999999999963 39.07126892192899
10.769999999999962 39.03655950299257
10.799999999999962 39.011842886540805
10.829999999999961 38.999259931123206
10.85999999999996 38.9990138590952
10.88999999999996 39.009547730287856
10.919999999999959 39.02795434331402
10.949999999999958 39.05053365790786
10.979999999999958 39.07340113040125
11.009999999999957 39.093053781728344
11.039999999999957 39.10681746372144
11.069999999999956 39.11312485775
11.099999999999955 39.11160455571667
11.129999999999955 39.1029915263163
11.159999999999954 39.08889426918412
11.189999999999953 39.071470183526145
11.219999999999953 39.05306691945241
11.249999999999952 39.035884249193934
11.279999999999951 39.02170019516123
11.30999999999995 39.011689710541496
11.33999999999995 39.00634725777518
11.36999999999995 39.005508801954
11.399999999999949 39.0084562455223
11.429999999999948 39.01407897561511
11.459999999999948 39.021063635831375
11.489999999999947 39.028084008846186
11.519999999999946 39.03396711181763
11.549999999999946 39.03781824208834
11.579999999999945 39.03909545987927
11.609999999999944 39.03763167470547
11.639999999999944 39.03360915108968
11.669999999999943 39.02749612501457
11.699999999999942 39.01995816739975
11.729999999999942 39.011757829947996
11.759999999999941 39.00365533190646
11.78999999999994 38.99632108069429
11.81999999999994 38.99026805558763
11.84999999999994 38.98580900309739
11.879999999999939 38.983040294500526
11.909999999999938 38.98185145148081
11.939999999999937 38.981956897977824
11.969999999999937 38.98294454239534
11.999999999999936 38.98433452705537
12.029999999999935 38.98564087374771
12.059999999999935 38.98642892792471
12.089999999999934 38.986362384834266
12.119999999999933 38.98523521386788
12.149999999999933 38.982985796822064
12.179999999999932 38.97969280915531
12.209999999999932 38.9755545513567
12.239999999999931 38.97085534942923
12.26999999999993 38.965923960482385
12.29999999999993 38.96108962538801
12.329999999999929 38.95664133825336
12.359999999999928 38.9527951639526
12.389999999999928 38.94967311761136
12.419999999999927 38.9472954333343
12.449999999999926 38.94558622678562
12.479999999999926 38.94439083808592
12.509999999999925 38.943501745725484
12.539999999999925 38.94268908743673
12.569999999999924 38.941731495581266
12.599999999999923 38.94044327141648
12.629999999999923 38.9386947043337
12.659999999999922 38.936423512038076
12.689999999999921 38.93363669766012
12.71999999999992 38.930403425614415
12.74999999999992 38.92684063384102
12.77999999999992 38.92309387802776
12.809999999999919 38.919316278242555
12.839999999999918 38.91564843433801
12.869999999999918 38.91220177270957
12.899999999999917 38.90904712208381
12.929999999999916 38.906209487224515
12.959999999999916 38.90366909988103
12.989999999999915 38.90136802908265
13.019999999999914 38.89922099736509
13.049999999999914 38.89712864085606
13.079999999999913 38.89499131513847
13.109999999999912 38.89272165654805
13.139999999999912 38.8902544340106
13.169999999999911 38.887552713590765
13.19999999999991 38.88460990880479
13.22999999999991 38.88144783719962
13.25999999999991 38.8781113911099
13.289999999999909 38.87466079850542
13.319999999999908 38.87116265370563
13.349999999999907 38.867680948060155
13.379999999999907 38.86426922000593
13.409999999999906 38.86096471668236
13.439999999999905 38.85778512466732
13.469999999999905 38.85472806452828
13.499999999999904 38.851773171918126
13.529999999999903 38.84888627792299
13.559999999999903 38.84602497041165
13.589999999999902 38.84314471511374
13.619999999999902 38.840204715774924
13.6499999999999 38.83717279779244
13.6799999999999 38.83402877812943
13.7099999999999 38.830766021785976
13.739999999999899 38.827391138804174
13.769999999999898 38.82392201659314
13.799999999999898 38.82038457225013
13.829999999999897 38.816808752802515
13.859999999999896 38.81322434598943
13.889999999999896 38.80965714992999
13.919999999999895 38.80612596126924
13.949999999999894 38.802640699401984
13.979999999999894 38.79920181721147
14.009999999999893 38.79580097676153
14.039999999999893 38.79242281250472
14.069999999999892 38.789047460524905
14.099999999999891 38.785653471387455
14.12999999999989 38.7822207052915
14.15999999999989 38.778732831566806
14.18999999999989 38.77517913461292
14.219999999999889 38.77155544650007
14.249999999999888 38.7678641485619
14.279999999999887 38.76411331087699
14.309999999999887 38.7603151588252
14.339999999999886 38.75648412762639
14.369999999999886 38.752634777874945
14.399999999999885 38.74877984901111
14.429999999999884 38.744928695590254
14.459999999999884 38.74108627596791
14.489999999999883 38.73725278468524
14.519999999999882 38.73342393375632
14.549999999999882 38.729591796712235
14.579999999999881 38.72574605387997
14.60999999999988 38.72187545159138
14.63999999999988 38.71796927926261
14.66999999999988 38.71401867348729
14.699999999999878 38.71001759023064
14.729999999999878 38.70596334003809
14.759999999999877 38.70185665005442
14.789999999999877 38.69770127758628
14.819999999999876 38.69350325691952
14.849999999999875 38.689269902806494
14.879999999999875 38.68500871973523
14.909999999999874 38.68072636316857
14.939999999999873 38.67642778005917
14.969999999999873 38.67211562630687
14.999999999999872 38.667790022342025
15.029999999999871 38.66344865786442
15.05999999999987 38.65908720163504
15.08999999999987 38.65469994677475
15.11999999999987 38.65028059155638
15.149999999999869 38.64582304392967
15.179999999999868 38.64132213751883
15.209999999999868 38.63677417721523
15.239999999999867 38.63217726206738
15.269999999999866 38.62753135269424
15.299999999999866 38.62283808950058
15.329999999999865 38.618100408869275
15.359999999999864 38.61332202319413
15.389999999999864 38.60850684211839
15.419999999999863 38.603658416302935
15.449999999999863 38.598779464357236
15.479999999999862 38.593871536247704
15.509999999999861 38.588934845103516
15.53999999999986 38.583968281172645
15.56999999999986 38.57896958858402
15.59999999999986 38.57393568412867
15.629999999999859 38.56886306905093
15.659999999999858 38.56374827707358
15.689999999999857 38.558588298889674
15.719999999999857 38.553380925694995
15.749999999999856 38.54812496527409
15.779999999999855 38.54282031004157
15.809999999999855 38.53746785152058
15.839999999999854 38.532069265907424
15.869999999999854 38.52662671082466
15.899999999999853 38.52114248637555
15.929999999999852 38.51561870071999
15.959999999999852 38.51005699295746
15.989999999999851 38.50445834235835
16.01999999999985 38.4988229739953
16.04999999999985 38.493150357083444
16.079999999999853 38.487439284662294
16.109999999999854 38.48168802461205
16.139999999999855 38.475894520845074
16.169999999999856 38.47005662051067
16.199999999999857 38.464172299695825
16.22999999999986 38.45823986512482
16.25999999999986 38.452258097238
16.28999999999986 38.44622631675268
16.31999999999986 38.44014436704045
16.349999999999863 38.434012520829356
16.379999999999864 38.42783132745426
