# Results for "element" with Id # 2640429 for search config "initial" at position: x0: -250; y0: 0; z0: 219.827586207
# time VELOCITY_X
0.03 0.007213051225613262
0.06 0.030229167416552568
0.09 0.0765780182997208
0.12 0.15156857240958999
0.15 0.25773195698917517
0.18 0.3946533131947835
0.21 0.5591132658585898
0.24 0.7454893655599972
0.27 0.9463651503498303
0.30000000000000004 1.153283811447956
0.33000000000000007 1.3575735721128706
0.3600000000000001 1.5511666028484967
0.3900000000000001 1.7273345128892772
0.42000000000000015 1.8812720441520256
0.4500000000000002 2.0104764239947617
0.4800000000000002 2.1148914347986905
0.5100000000000002 2.1968101825004553
0.5400000000000003 2.2605556551996937
0.5700000000000003 2.311980243265442
0.6000000000000003 2.3578418198782987
0.6300000000000003 2.405123054746794
0.6600000000000004 2.4603620044863277
0.6900000000000004 2.529056321878768
0.7200000000000004 2.6151923187498927
0.7500000000000004 2.7209353640797356
0.7800000000000005 2.84650171345655
0.8100000000000005 2.9902153299204177
0.8400000000000005 3.148737647367425
0.8700000000000006 3.3174442262283605
0.9000000000000006 3.490910374918843
0.9300000000000006 3.663458691261199
0.9600000000000006 3.829715883551121
0.9900000000000007 3.9851251742924223
1.0200000000000007 4.126364687290751
1.0500000000000007 4.2516317161647965
1.0800000000000007 4.360766987877936
1.1100000000000008 4.455210363872862
1.1400000000000008 4.537797658002889
1.1700000000000008 4.6124249440120595
1.2000000000000008 4.683619712104575
1.2300000000000009 4.756066100950023
1.260000000000001 4.834133667141159
1.290000000000001 4.921456114865417
1.320000000000001 5.020599044234001
1.350000000000001 5.132845398606422
1.380000000000001 5.258115039383861
1.410000000000001 5.395021884353751
1.440000000000001 5.541059174925906
1.470000000000001 5.692891515359898
1.500000000000001 5.846722250140233
1.5300000000000011 5.998697437358214
1.5600000000000012 6.145304075954298
1.5900000000000012 6.283721096909449
1.6200000000000012 6.412087018374481
1.6500000000000012 6.529657829406328
1.6800000000000013 6.636841342699978
1.7100000000000013 6.735108405904688
1.7400000000000013 6.826795064100986
1.7700000000000014 6.9148212966429
1.8000000000000014 7.0023599515346815
1.8300000000000014 7.092493279940252
1.8600000000000014 7.187893893441428
1.8900000000000015 7.290562543762441
1.9200000000000015 7.40164761729039
1.9500000000000015 7.521361664870257
1.9800000000000015 7.64899971434046
2.0100000000000016 7.78305348939396
2.0400000000000014 7.921405964161154
2.070000000000001 8.061582764052007
2.100000000000001 8.201031567456733
2.130000000000001 8.337398418600172
2.1600000000000006 8.46877108167603
2.1900000000000004 8.593864082894076
2.22 8.712127471397316
2.25 8.823770585652253
2.28 8.929702074160383
2.3099999999999996 9.031396805392774
2.3399999999999994 9.130707976655682
2.369999999999999 9.229647852553253
2.399999999999999 9.330162694667191
2.429999999999999 9.433926607272307
2.4599999999999986 9.542175523567716
2.4899999999999984 9.655597062675074
2.5199999999999982 9.774285149228279
2.549999999999998 9.897760954011222
2.579999999999998 10.025054595148553
2.6099999999999977 10.154835834894818
2.6399999999999975 10.285577279247292
2.6699999999999973 10.41573079068566
2.699999999999997 10.543897199686267
2.729999999999997 10.668970997453275
2.7599999999999967 10.79024527609606
2.7899999999999965 10.907467285716551
2.8199999999999963 11.020840996338846
2.849999999999996 11.130979185092945
2.879999999999996 11.238813113599639
2.9099999999999957 11.345472165666555
2.9399999999999955 11.452148469253752
2.9699999999999953 11.559962318727724
2.999999999999995 11.669843200069725
3.029999999999995 11.782438626306433
3.0599999999999947 11.89805924117244
3.0899999999999945 12.016664194849117
3.1199999999999943 12.137886157606694
3.149999999999994 12.26109102525171
3.179999999999994 12.385463800855803
3.2099999999999937 12.510109679801133
3.2399999999999936 12.634158226961324
3.2699999999999934 12.756858808907854
3.299999999999993 12.87765703985204
3.329999999999993 12.996244705148396
3.3599999999999928 13.112579043675927
3.3899999999999926 13.226871007704709
3.4199999999999924 13.339545688034239
3.449999999999992 13.451181080991649
3.479999999999992 13.562433473991078
3.509999999999992 13.673958734210613
3.5399999999999916 13.786338666221823
3.5699999999999914 13.90002044892677
3.599999999999991 14.015275162996865
3.629999999999991 14.132178880725933
3.659999999999991 14.250617017102416
3.6899999999999906 14.370309959250136
3.7199999999999904 14.49085569823309
3.7499999999999902 14.611783523090931
3.77999999999999 14.732611941993019
3.80999999999999 14.852903942546245
3.8399999999999896 14.972313444759923
3.8699999999999894 15.09061820820745
3.8999999999999893 15.207736334909036
3.929999999999989 15.323725592607603
3.959999999999989 15.438766828941313
3.9899999999999887 15.553134501245129
4.019999999999989 15.667158629282241
4.049999999999989 15.781183160498491
4.079999999999989 15.895525792502719
4.10999999999999 16.01044375942297
4.13999999999999 16.126109069188868
4.16999999999999 16.242595331408907
4.19999999999999 16.35987682094965
4.229999999999991 16.477838969897462
4.259999999999991 16.596298218715567
4.289999999999991 16.71502823903201
4.319999999999991 16.83378902941084
4.349999999999992 16.952355319426996
4.379999999999992 17.07054106946857
4.409999999999992 17.18821755299509
4.439999999999992 17.305323446101568
4.469999999999993 17.421866398247374
4.499999999999993 17.537916586437643
4.529999999999993 17.653593639240576
4.559999999999993 17.76904897377006
4.589999999999994 17.884445948892143
4.619999999999994 17.999940290546256
4.649999999999994 18.115663006594637
4.679999999999994 18.231707539743013
4.709999999999995 18.34812227023625
4.739999999999995 18.46490877381562
4.769999999999995 18.582025547402317
4.799999999999995 18.699396317257346
4.829999999999996 18.816921591875335
4.859999999999996 18.934491872638727
4.889999999999996 19.052000876933644
4.919999999999996 19.169357273361467
4.949999999999997 19.286493723722714
4.979999999999997 19.403372436716985
5.009999999999997 19.519986904048814
5.039999999999997 19.636359953657596
5.069999999999998 19.75253865816447
5.099999999999998 19.868586941063555
5.129999999999998 19.984576918087303
5.159999999999998 20.10058005544635
5.189999999999999 20.216659158441743
5.219999999999999 20.33286201825795
5.249999999999999 20.449217289301036
5.279999999999999 20.565732866889856
5.31 20.68239673263195
5.34 20.799179963535764
5.37 20.916041385704798
5.4 21.032933210904005
5.430000000000001 21.1498069451696
5.460000000000001 21.266618882243307
5.490000000000001 21.383334602730457
5.520000000000001 21.499932057950637
5.550000000000002 21.616403009036777
5.580000000000002 21.732752794101916
5.610000000000002 21.848998586317773
5.640000000000002 21.96516646142756
5.670000000000003 22.08128769851043
5.700000000000003 22.197394791948792
5.730000000000003 22.31351764611843
5.760000000000003 22.429680366963236
5.790000000000004 22.54589896663332
5.820000000000004 22.66218016718217
5.850000000000004 22.7785213526313
5.880000000000004 22.89491158540734
5.910000000000005 23.01133348854661
5.940000000000005 23.127765713359683
5.970000000000005 23.244185666255742
6.000000000000005 23.36057216533634
6.030000000000006 23.476907726759325
6.060000000000006 23.593180246900886
6.090000000000006 23.70938393427347
6.120000000000006 23.825519442931565
6.150000000000007 23.941593252726594
6.180000000000007 24.05761642554762
6.210000000000007 24.173602929323344
6.240000000000007 24.2895677571928
6.270000000000008 24.405525076212136
6.300000000000008 24.52148661713907
6.330000000000008 24.637460472933533
6.360000000000008 24.7534504147581
6.390000000000009 24.869455765353738
6.420000000000009 24.985471801566888
6.450000000000009 25.101490596178373
6.480000000000009 25.217502168351558
6.51000000000001 25.33349578471515
6.54000000000001 25.449461242960624
6.57000000000001 25.56538999070126
6.60000000000001 25.681275963928986
6.6300000000000106 25.797116066211316
6.660000000000011 25.912910260485276
6.690000000000011 26.028661295193178
6.720000000000011 26.144374125153355
6.7500000000000115 26.260055119522306
6.780000000000012 26.37571116914279
6.810000000000012 26.491348804921017
6.840000000000012 26.606973432722334
6.8700000000000125 26.722588765551624
6.900000000000013 26.83819650258235
6.930000000000013 26.953796275962382
6.960000000000013 27.06938584639819
6.9900000000000135 27.18496150247405
7.020000000000014 27.300518601410783
7.050000000000014 27.416052174396892
7.080000000000014 27.531557521944755
7.1100000000000145 27.64703072991523
7.140000000000015 27.762469050406
7.170000000000015 27.877871116074324
7.200000000000015 27.993236975614227
7.2300000000000155 28.108567961806582
7.260000000000016 28.22386642170041
7.290000000000016 28.339135352627615
7.320000000000016 28.454377993861975
7.3500000000000165 28.569597425020525
7.380000000000017 28.684796218125165
7.410000000000017 28.79997617981367
7.440000000000017 28.91513820673894
7.4700000000000175 29.030282261203148
7.500000000000018 29.145407459517752
7.530000000000018 29.260512253897584
7.560000000000018 29.37559467892413
7.5900000000000185 29.490652628259305
7.620000000000019 29.60568412695574
7.650000000000019 29.720687567324525
7.680000000000019 29.83566188379758
7.7100000000000195 29.950606651701104
7.74000000000002 30.065522104245776
7.77000000000002 30.18040907255237
7.80000000000002 30.295268861716487
7.8300000000000205 30.4101030829285
7.860000000000021 30.52491346430554
7.890000000000021 30.639701663770154
7.920000000000021 30.75446910598776
7.9500000000000215 30.869216860033823
7.980000000000022 30.983945569152652
8.010000000000021 31.098655435943627
8.04000000000002 31.213346260571715
8.07000000000002 31.328017524111395
8.10000000000002 31.442668502744567
8.130000000000019 31.557298397201826
8.160000000000018 31.671906461217343
8.190000000000017 31.786492113730645
8.220000000000017 31.901055023823396
8.250000000000016 32.015595160265015
8.280000000000015 32.13011280152155
8.310000000000015 32.244608508206824
8.340000000000014 32.35908306403518
8.370000000000013 32.47353739527722
8.400000000000013 32.58797247930577
8.430000000000012 32.70238925452692
8.460000000000012 32.816788541499974
8.49000000000001 32.93117098451197
8.52000000000001 33.04553701747276
8.55000000000001 33.15988685615198
8.580000000000009 33.27422051625368
8.610000000000008 33.388537852423475
8.640000000000008 33.50283861249561
8.670000000000007 33.61712250046466
8.700000000000006 33.73138924004912
8.730000000000006 33.84563863167829
8.760000000000005 33.95987059805465
8.790000000000004 34.07408520908179
8.820000000000004 34.18828268852701
8.850000000000003 34.30246340155787
8.880000000000003 34.41662782555656
8.910000000000002 34.53077650844381
8.940000000000001 34.64491002054967
8.97 34.75902890546815
9.0 34.87313363736789
9.03 34.987224587341935
9.059999999999999 35.10130200449873
9.089999999999998 35.21536601287437
9.119999999999997 35.32941662289888
9.149999999999997 35.443453753396255
9.179999999999996 35.557477261177766
9.209999999999996 35.671486975586205
9.239999999999995 35.785482734631145
9.269999999999994 35.89946441630349
9.299999999999994 36.01343196013986
9.329999999999993 36.12738538029549
9.359999999999992 36.24132476674069
9.389999999999992 36.35525027555653
9.419999999999991 36.469162110860616
9.44999999999999 36.58306050193874
9.47999999999999 36.696945678655055
9.50999999999999 36.81081785030686
9.539999999999988 36.924677189231886
9.569999999999988 37.0385238217843
9.599999999999987 37.15235782094473
9.629999999999987 37.26617920387081
9.659999999999986 37.37998793824413
9.689999999999985 37.49378395795011
9.719999999999985 37.607567183651206
9.749999999999984 37.72133754387681
9.779999999999983 37.83509498940923
9.809999999999983 37.9488395071756
9.839999999999982 38.062571131343574
9.869999999999981 38.17628995035791
9.89999999999998 38.289996108975316
9.92999999999998 38.40368980401026
9.95999999999998 38.51737127298883
9.989999999999979 38.63104077726785
10.019999999999978 38.73702007623752
10.049999999999978 38.82297491825061
10.079999999999977 38.87829338207417
10.109999999999976 38.896876597998656
10.139999999999976 38.87818803431372
10.169999999999975 38.82714221661683
10.199999999999974 38.75309537331334
10.229999999999974 38.668187592611055
10.259999999999973 38.58534283213627
10.289999999999973 38.51626503130266
10.319999999999972 38.469748046916884
10.349999999999971 38.450545688904576
10.37999999999997 38.45894184628236
10.40999999999997 38.49103995523613
10.43999999999997 38.539676093968524
10.469999999999969 38.59576792526548
10.499999999999968 38.64985533576008
10.529999999999967 38.693574986268196
10.559999999999967 38.72084080616555
10.589999999999966 38.72856808939571
10.619999999999965 38.71686750835337
10.649999999999965 38.68872864211009
10.679999999999964 38.64929356439363
10.709999999999964 38.604876214843316
10.739999999999963 38.561906049056745
10.769999999999962 38.52596537244412
10.799999999999962 38.50105520515743
10.829999999999961 38.48917365829174
10.85999999999996 38.49023451486466
10.88999999999996 38.502300084673315
10.919999999999959 38.52205936025614
10.949999999999958 38.54545429123825
10.979999999999958 38.568345915363814
11.009999999999957 38.58711799955978
11.039999999999957 38.599136425799806
11.069999999999956 38.60301324669031
11.099999999999955 38.59865966340338
11.129999999999955 38.587145586711884
11.159999999999954 38.57041047155841
11.189999999999953 38.550886533008246
11.219999999999953 38.53110025816778
11.249999999999952 38.51331225843471
11.279999999999951 38.49924140342461
11.30999999999995 38.489900385344065
11.33999999999995 38.485550034215386
11.36999999999995 38.48576184247328
11.399999999999949 38.489564786944655
11.429999999999948 38.495644378359714
11.459999999999948 38.502559588547896
11.489999999999947 38.50894612489714
11.519999999999946 38.5136811637819
11.549999999999946 38.51599369939759
11.579999999999945 38.515514399672476
11.609999999999944 38.51226780620517
11.639999999999944 38.50661676491114
11.669999999999943 38.49917338106649
11.699999999999942 38.49069260055759
11.729999999999942 38.48196384324497
11.759999999999941 38.47371363939001
11.78999999999994 38.46652872898448
11.81999999999994 38.460805172791744
11.84999999999994 38.45672531567191
11.879999999999939 38.45426125350869
11.909999999999938 38.45320101153942
11.939999999999937 38.45319194806429
11.969999999999937 38.45379490153157
11.999999999999936 38.454542332811975
12.029999999999935 38.45499398461892
12.059999999999935 38.45478441336353
12.089999999999934 38.45365799984554
12.119999999999933 38.45148864455432
12.149999999999933 38.44828314994301
12.179999999999932 38.44416908771167
12.209999999999932 38.43936960202366
12.239999999999931 38.434168952990035
12.26999999999993 38.42887341527468
12.29999999999993 38.42377245889149
12.329999999999929 38.419104822063844
12.359999999999928 38.41503325108194
12.389999999999928 38.41163041335053
12.419999999999927 38.40887696810884
12.449999999999926 38.40667120699135
12.479999999999926 38.40484824683434
12.509999999999925 38.403205650725326
12.539999999999925 38.40153176182131
12.569999999999924 38.39963290808436
12.599999999999923 38.39735609045027
12.629999999999923 38.39460459355179
12.659999999999922 38.39134510332128
12.689999999999921 38.38760613482877
12.71999999999992 38.38346872474182
12.74999999999992 38.379051277602734
12.77999999999992 38.374491038132454
12.809999999999919 38.36992486416182
12.839999999999918 38.36547184165508
12.869999999999918 38.361219788512535
12.899999999999917 38.35721700274078
12.929999999999916 38.353469816747946
12.959999999999916 38.34994570731424
12.989999999999915 38.346581033817166
13.019999999999914 38.34329197902535
13.049999999999914 38.3399869904798
13.079999999999913 38.33657900528481
13.109999999999912 38.332995934557566
13.139999999999912 38.32918825580856
13.169999999999911 38.32513305077115
13.19999999999991 38.320834331917744
13.22999999999991 38.31631997239558
13.25999999999991 38.311635944104935
13.289999999999909 38.30683883836738
13.319999999999908 38.301987756005566
13.349999999999907 38.297136630047156
13.379999999999907 38.29232789644654
13.409999999999906 38.28758818670296
13.439999999999905 38.282926397538404
13.469999999999905 38.2783341758596
13.499999999999904 38.27378854297215
13.529999999999903 38.26925613496511
13.559999999999903 38.26469837144312
13.589999999999902 38.26007682258282
13.619999999999902 38.255358079873794
13.6499999999999 38.2505175677413
13.6799999999999 38.245541902299486
13.7099999999999 38.24042962340842
13.739999999999899 38.235190348582265
13.769999999999898 38.22984258847763
13.799999999999898 38.22441061048979
13.829999999999897 38.21892083730777
13.859999999999896 38.21339826201608
13.889999999999896 38.20786333650372
13.919999999999895 38.20232968982886
13.949999999999894 38.19680289869851
13.979999999999894 38.19128038470552
14.009999999999893 38.185752373238415
14.039999999999893 38.180203718069315
14.069999999999892 38.17461627180846
14.099999999999891 38.16897146125307
14.12999999999989 38.16325272471088
14.15999999999989 38.157447497411276
14.18999999999989 38.15154852331079
14.219999999999889 38.14555437207253
14.249999999999888 38.139469139126646
14.279999999999887 38.13330142995901
14.309999999999887 38.12706283466666
14.339999999999886 38.12076614358873
14.369999999999886 38.114423544070945
14.399999999999885 38.10804502991494
14.429999999999884 38.101637217637574
14.459999999999884 38.09520268531291
14.489999999999883 38.088739884332696
14.519999999999882 38.08224360165407
14.549999999999882 38.07570587006267
14.579999999999881 38.0691171614824
14.60999999999988 38.06246769015702
14.63999999999988 38.05574865882637
14.66999999999988 38.04895329565828
14.699999999999878 38.04207756021214
14.729999999999878 38.03512044631553
14.759999999999877 38.028083872229416
14.789999999999877 38.0209722010503
14.819999999999876 38.01379147591514
14.849999999999875 38.00654848922254
14.879999999999875 37.99924982220257
14.909999999999874 37.991900980834025
14.939999999999873 37.984505728262384
14.969999999999873 37.97706568259006
14.999999999999872 37.96958022439054
15.029999999999871 37.96204671002471
15.05999999999987 37.95446093407767
15.08999999999987 37.946817772088046
15.11999999999987 37.93911190373826
15.149999999999869 37.93133851363357
15.179999999999868 37.923493870831464
15.209999999999868 37.91557572378568
15.239999999999867 37.907583479264815
15.269999999999866 37.899518155860946
15.299999999999866 37.891382132224905
15.329999999999865 37.88317874377693
15.359999999999864 37.874911791141955
15.389999999999864 37.866585028574505
15.419999999999863 37.858201703310414
15.449999999999863 37.84976418574882
15.479999999999862 37.84127372949888
15.509999999999861 37.8327303851113
15.53999999999986 37.82413307335936
15.56999999999986 37.81547979148839
15.59999999999986 37.806767935351274
15.629999999999859 37.797994693800796
15.659999999999858 37.78915745745329
15.689999999999857 37.780254189993656
15.719999999999857 37.77128370990345
15.749999999999856 37.76224584708991
15.779999999999855 37.75314145404058
15.809999999999855 37.74397226783997
15.839999999999854 37.734740655735536
15.869999999999854 37.72544929302132
15.899999999999853 37.71610083197524
15.929999999999852 37.70669759264053
15.959999999999852 37.697241328649774
15.989999999999851 37.68773309426074
16.01999999999985 37.678173208951925
16.04999999999985 37.66856130352266
16.079999999999853 37.658896430971915
16.109999999999854 37.64917722691088
16.139999999999855 37.63940209952078
16.169999999999856 37.62956942797588
16.199999999999857 37.61967775144203
16.22999999999986 37.60972593431773
16.25999999999986 37.59971327441982
16.28999999999986 37.58963954031561
16.31999999999986 37.57950493110208
16.349999999999863 37.56930996660241
