# Results for "element" with Id # 2684968 for search config "initial" at position: x0: -250; y0: 0; z0: 51.724137931
# time VELOCITY_X
0.03 0.007121051116255181
0.06 0.02980868390892811
0.09 0.07543032873295773
0.12 0.1491330442177456
0.15 0.25330260694764706
0.18 0.3874137266471012
0.21 0.5481908730647416
0.24 0.7300262848884393
0.27 0.9255982525031625
0.30000000000000004 1.1266230618782735
0.33000000000000007 1.3246663974936845
0.3600000000000001 1.5119375816055138
0.3900000000000001 1.6819937016293711
0.42000000000000015 1.8302907142185911
0.4500000000000002 1.9545344180066757
0.4800000000000002 2.0548044879685383
0.5100000000000002 2.133447632921769
0.5400000000000003 2.1947589148606124
0.5700000000000003 2.244490732676132
0.6000000000000003 2.289244516784225
0.6300000000000003 2.335809172808206
0.6600000000000004 2.3905119504750556
0.6900000000000004 2.458642234301409
0.7200000000000004 2.5439979401387225
0.7500000000000004 2.648589686496131
0.7800000000000005 2.7725217519040517
0.8100000000000005 2.9140527075411295
0.8400000000000005 3.0698236903021825
0.8700000000000006 3.2352291219180556
0.9000000000000006 3.404893627609489
0.9300000000000006 3.5732101872817985
0.9600000000000006 3.734888936918461
0.9900000000000007 3.8854642284984973
1.0200000000000007 4.021710731468797
1.0500000000000007 4.141927773737276
1.0800000000000007 4.24606455610961
1.1100000000000008 4.335675930009263
1.1400000000000008 4.413716923018874
1.1700000000000008 4.484201573546379
1.2000000000000008 4.551765435881209
1.2300000000000009 4.62117980950322
1.260000000000001 4.696868498548226
1.290000000000001 4.782475239825014
1.320000000000001 4.880522622390647
1.350000000000001 4.9921928492143
1.380000000000001 5.117248211205951
1.410000000000001 5.254095734494609
1.440000000000001 5.399986956580088
1.470000000000001 5.551330972607094
1.500000000000001 5.704087777413433
1.5300000000000011 5.8542004978594315
1.5600000000000012 5.998020704212518
1.5900000000000012 6.132681366203131
1.6200000000000012 6.256377730523881
1.6500000000000012 6.368526951684777
1.6800000000000013 6.469791504492617
1.7100000000000013 6.5619673260628515
1.7400000000000013 6.647753099335942
1.7700000000000014 6.730430051098858
1.8000000000000014 6.813490485814412
1.8300000000000014 6.900257306879172
1.8600000000000014 6.993535756319273
1.8900000000000015 7.095333318213609
1.9200000000000015 7.206674926990343
1.9500000000000015 7.327529590043989
1.9800000000000015 7.45685239628188
2.0100000000000016 7.592733768341178
2.0400000000000014 7.732636787440576
2.070000000000001 7.873694470042225
2.100000000000001 8.013032966409257
2.130000000000001 8.148084403513504
2.1600000000000006 8.276855031855327
2.1900000000000004 8.398120133197022
2.22 8.511526362745624
2.25 8.617593499077234
2.28 8.717619500375454
2.3099999999999996 8.813503754819857
2.3399999999999994 8.90751205600866
2.369999999999999 9.002012224373775
2.399999999999999 9.099210976477702
2.429999999999999 9.200920811674308
2.4599999999999986 9.308380762213949
2.4899999999999984 9.422147802318534
2.5199999999999982 9.542067268937972
2.549999999999998 9.66732186675723
2.579999999999998 9.796550517129827
2.6099999999999977 9.928021225956543
2.6399999999999975 10.059836955580385
2.6699999999999973 10.190150665753682
2.699999999999997 10.317365511670056
2.729999999999997 10.44029868415604
2.7599999999999967 10.558292234536019
2.7899999999999965 10.671260806993462
2.8199999999999963 10.779673771481011
2.849999999999996 10.88447676846073
2.879999999999996 10.986964281202987
2.9099999999999957 11.088619784704333
2.9399999999999955 11.190942791999719
2.9699999999999953 11.295282559482704
2.999999999999995 11.402696448222347
3.029999999999995 11.513847295500563
3.0599999999999947 11.628949188605878
3.0899999999999945 11.74776532765963
3.1199999999999943 11.869655823976142
3.149999999999994 11.993667939681723
3.179999999999994 12.118656929593616
3.2099999999999937 12.243422734343875
3.2399999999999936 12.366846578595785
3.2699999999999934 12.488012151130944
3.299999999999993 12.606298379287642
3.329999999999993 12.72143458026127
3.3599999999999928 12.833513450346416
3.3899999999999926 12.94296239699793
3.4199999999999924 13.05047848675363
3.449999999999992 13.156936198936446
3.479999999999992 13.263279836600434
3.509999999999992 13.370413586117047
3.5399999999999916 13.479101813866716
3.5699999999999914 13.589890369222108
3.599999999999991 13.703056715985086
3.629999999999991 13.81859306338807
3.659999999999991 13.936222730706156
3.6899999999999906 14.055446204376937
3.7199999999999904 14.175610149519368
3.7499999999999902 14.295990352891764
3.77999999999999 14.415878406316281
3.80999999999999 14.5346620003108
3.8399999999999896 14.651889920243613
3.8699999999999894 14.767315048520622
3.8999999999999893 14.880911579798887
3.929999999999989 14.99286584961597
3.959999999999989 15.103543291508341
3.9899999999999887 15.213436684127416
4.019999999999989 15.323102742613477
4.049999999999989 15.433095056788751
4.079999999999989 15.54390133814583
4.10999999999999 15.655891968656897
4.13999999999999 15.769285123907776
4.16999999999999 15.884131515532964
4.19999999999999 16.00031935069253
4.229999999999991 16.11759774263645
4.259999999999991 16.235614765038523
4.289999999999991 16.353964876626446
4.319999999999991 16.472239657627174
4.349999999999992 16.590075770324272
4.379999999999992 16.70719473636926
4.409999999999992 16.823430402512194
4.439999999999992 16.938741655793457
4.469999999999993 17.053209827089795
4.499999999999993 17.16702205348342
4.529999999999993 17.280443433191312
4.559999999999993 17.39378194368099
4.589999999999994 17.507350682202304
4.619999999999994 17.621432002781763
4.649999999999994 17.73624759848456
4.679999999999994 17.85193761835261
4.709999999999995 17.96855064557991
4.739999999999995 18.086044976402178
4.769999999999995 18.204300291389437
4.799999999999995 18.323137663078153
4.829999999999996 18.442345001364473
4.859999999999996 18.56170460569583
4.889999999999996 18.681019463026036
4.919999999999996 18.80013531015673
4.949999999999997 18.91895617010546
4.979999999999997 19.037451996054433
5.009999999999997 19.155658078570593
5.039999999999997 19.27366686490471
5.069999999999998 19.391613679857596
5.099999999999998 19.50965844315422
5.129999999999998 19.627965810942435
5.159999999999998 19.74668616913081
5.189999999999999 19.865939639104433
5.219999999999999 19.985804744299273
5.249999999999999 20.10631272465849
5.279999999999999 20.227447748340367
5.31 20.34915256359516
5.34 20.471338534232
5.37 20.593898567067
5.4 20.71672120631464
5.430000000000001 20.839704163464344
5.460000000000001 20.96276573665109
5.490000000000001 21.085852941931563
5.520000000000001 21.208945649735846
5.550000000000002 21.332056538608935
5.580000000000002 21.455227181347787
5.610000000000002 21.578521012880188
5.640000000000002 21.70201423825456
5.670000000000003 21.825785896610743
5.700000000000003 21.949908306785346
5.730000000000003 22.074438984413906
5.760000000000003 22.199414867386995
5.790000000000004 22.324849354454276
5.820000000000004 22.45073228488113
5.850000000000004 22.577032639287967
5.880000000000004 22.703703439933527
5.910000000000005 22.830688106296712
5.940000000000005 22.957927410447613
5.970000000000005 23.085366173642065
6.000000000000005 23.21295894047961
6.030000000000006 23.340674038193605
6.060000000000006 23.468495664391956
6.090000000000006 23.59642391316238
6.120000000000006 23.724472898957874
6.150000000000007 23.85266734437478
6.180000000000007 23.98103815017736
6.210000000000007 24.109617550813518
6.240000000000007 24.238434459345513
6.270000000000008 24.367510538286563
6.300000000000008 24.49685740390272
6.330000000000008 24.62647520595335
6.360000000000008 24.756352645640536
6.390000000000009 24.88646832035812
6.420000000000009 25.01679313552901
6.450000000000009 25.147293414859412
6.480000000000009 25.277934293992743
6.51000000000001 25.4086829737981
6.54000000000001 25.53951145520741
6.57000000000001 25.670398474434105
6.60000000000001 25.80133047900282
6.6300000000000106 25.932301599734668
6.660000000000011 26.06331269844171
6.690000000000011 26.194369681565835
6.720000000000011 26.325481337141564
6.7500000000000115 26.45665699083801
6.780000000000012 26.587904280486413
6.810000000000012 26.719227301466113
6.840000000000012 26.850625321949167
6.8700000000000125 26.982092177979208
6.900000000000013 27.11361637095726
6.930000000000013 27.245181811167676
6.960000000000013 27.376769058900692
6.9900000000000135 27.508356873275726
7.020000000000014 27.63992386427369
7.050000000000014 27.771450040405252
7.080000000000014 27.902918079511917
7.1100000000000145 28.03431419347497
7.140000000000015 28.165628511893484
7.170000000000015 28.296854982026478
7.200000000000015 28.427990833572228
7.2300000000000155 28.559035707648636
7.260000000000016 28.68999058501003
7.290000000000016 28.82085666089724
7.320000000000016 28.95163430710023
7.3500000000000165 29.082322237174832
7.380000000000017 29.212916963853484
7.410000000000017 29.343412592892157
7.440000000000017 29.473800954109205
7.4700000000000175 29.604072027306717
7.500000000000018 29.734214587182922
7.530000000000018 29.864216971211416
7.560000000000018 29.994067868088003
7.5900000000000185 30.12375702891466
7.620000000000019 30.25327582204641
7.650000000000019 30.382617574919546
7.680000000000019 30.511777677360776
7.7100000000000195 30.64075345573323
7.74000000000002 30.769543850831912
7.77000000000002 30.8981489563633
7.80000000000002 31.02656948329388
7.8300000000000205 31.15480622118671
7.860000000000021 31.282859562512993
7.890000000000021 31.410729143306057
7.920000000000021 31.53841363541136
7.9500000000000215 31.665910702535594
7.980000000000022 31.793217111874373
8.010000000000021 31.92032897514489
8.04000000000002 32.04724207746419
8.07000000000002 32.173952247503635
8.10000000000002 32.30045571716901
8.130000000000019 32.42674942726892
8.160000000000018 32.55283124559579
8.190000000000017 32.67870007637427
8.220000000000017 32.804355857506415
8.250000000000016 32.9297994527339
8.280000000000015 33.05503245639148
8.310000000000015 33.18005694323261
8.340000000000014 33.30487519790784
8.370000000000013 33.429489460131435
8.400000000000013 33.55390171455121
8.430000000000012 33.678113547863795
8.460000000000012 33.80212608295013
8.49000000000001 33.92593999280269
8.52000000000001 34.0495555834492
8.55000000000001 34.172972928286335
8.580000000000009 34.29619203244956
8.610000000000008 34.419213003613244
8.640000000000008 34.54203620598383
8.670000000000007 34.66466237902006
8.700000000000006 34.78709270881108
8.730000000000006 34.909328847663204
8.760000000000005 35.031372886714415
8.790000000000004 35.15322727777533
8.820000000000004 35.274894725219625
8.850000000000003 35.39637806054962
8.880000000000003 35.51768011542295
8.910000000000002 35.63880360663552
8.940000000000001 35.75975104556011
8.97 35.880524679259764
9.0 36.00112647279159
9.03 36.12155812575362
9.059999999999999 36.24182112136265
9.089999999999998 36.361916800385046
9.119999999999997 36.48184644684601
9.149999999999997 36.60161137065138
9.179999999999996 36.72121297676176
9.209999999999996 36.84065281529949
9.239999999999995 36.95993260858293
9.269999999999994 37.07905424925377
9.299999999999994 37.19801977119554
9.329999999999993 37.316831302123326
9.359999999999992 37.435491002259596
9.389999999999992 37.55400099722017
9.419999999999991 37.67236331425347
9.44999999999999 37.79057983210533
9.47999999999999 37.90865224843434
9.50999999999999 38.02658207185917
9.539999999999988 38.14437063239489
9.569999999999988 38.2620191115374
9.599999999999987 38.37952857228595
9.629999999999987 38.49689999272795
9.659999999999986 38.614134305483304
9.689999999999985 38.731232438755484
9.719999999999985 38.84819535266392
9.749999999999984 38.96502406136068
9.779999999999983 39.08171962935147
9.809999999999983 39.19828315819368
9.839999999999982 39.31471576838597
9.869999999999981 39.43101857798548
9.89999999999998 39.54719268008378
9.92999999999998 39.663239116692196
9.95999999999998 39.77915885384547
9.989999999999979 39.894952759051506
10.019999999999978 40.00326949298517
10.049999999999978 40.09220171526836
10.079999999999977 40.15129244504284
10.109999999999976 40.174260496752495
10.139999999999976 40.160168827966814
10.169999999999975 40.11349912781775
10.199999999999974 40.0433191781459
10.229999999999974 39.96173657604837
10.259999999999973 39.881915614168584
10.289999999999973 39.815996708679116
10.319999999999972 39.77326367815016
10.349999999999971 39.75884819842342
10.37999999999997 39.77315732975598
10.40999999999997 39.812081112865975
10.43999999999997 39.867906346634435
10.469999999999969 39.93075092021953
10.499999999999968 39.99025744122604
10.529999999999967 40.037256045070635
10.559999999999967 40.06512826169125
10.589999999999966 40.070670068892454
10.619999999999965 40.05435026816128
10.649999999999965 40.019968928174976
10.679999999999964 39.973819498306035
10.709999999999964 39.92352975503006
10.739999999999963 39.87679133291841
10.769999999999962 39.84018398906634
10.799999999999962 39.81826528244286
10.829999999999961 39.813038884916935
10.85999999999996 39.823848114586674
10.88999999999996 39.847674626559126
10.919999999999959 39.87976529626915
10.949999999999958 39.914469054456134
10.979999999999958 39.94614377072477
11.009999999999957 39.96999314566409
11.039999999999957 39.98271402754602
11.069999999999956 39.98287160066262
11.099999999999955 39.97096743351178
11.129999999999955 39.94921448254938
11.159999999999954 39.92107679139805
11.189999999999953 39.89066226511592
11.219999999999953 39.862071027432
11.249999999999952 39.8387991150702
11.279999999999951 39.82327977016233
11.30999999999995 39.81661680306356
11.33999999999995 39.818531794955526
11.36999999999995 39.827514207841354
11.399999999999949 39.841135758508194
11.429999999999948 39.85647024844849
11.459999999999948 39.87055001694991
11.489999999999947 39.88079072306053
11.519999999999946 39.88532626435934
11.549999999999946 39.88321342978321
11.579999999999945 39.874488116466345
11.609999999999944 39.86007797474919
11.639999999999944 39.84159673435706
11.669999999999943 39.82106005394255
11.699999999999942 39.80057031683728
11.729999999999942 39.782017542313106
11.759999999999941 39.76683662354348
11.78999999999994 39.75584921711252
11.81999999999994 39.749204060818734
11.84999999999994 39.74641464137377
11.879999999999939 39.746479990774375
11.909999999999938 39.74806455462049
11.939999999999937 39.74970743759136
11.969999999999937 39.75003010812255
11.999999999999936 39.74791476768463
12.029999999999935 39.742632022863525
12.059999999999935 39.733905269017036
12.089999999999934 39.72190882968452
12.119999999999933 39.70720607040685
12.149999999999933 39.690641203243885
12.179999999999932 39.67320339203728
12.209999999999932 39.655883701689085
12.239999999999931 39.639544475369505
12.26999999999993 39.6248171718994
12.29999999999993 39.6120394663466
12.329999999999929 39.60123626746614
12.359999999999928 39.59214318586595
12.389999999999928 39.58426563701633
12.419999999999927 39.57696278673104
12.449999999999926 39.569543329385304
12.479999999999926 39.56135972649419
12.509999999999925 39.551888833250246
12.539999999999925 39.540789690466944
12.569999999999924 39.52793291075739
12.599999999999923 39.513400270217645
12.629999999999923 39.49745705712474
12.659999999999922 39.48050304739587
12.689999999999921 39.46301023877204
12.71999999999992 39.44545648089803
12.74999999999992 39.42826389620209
12.77999999999992 39.411749596137675
12.809999999999919 39.396093959744455
12.839999999999918 39.381329088578596
12.869999999999918 39.36734721037425
12.899999999999917 39.35392629079458
12.929999999999916 39.34076816454755
12.959999999999916 39.32754327567664
12.989999999999915 39.31393577599641
13.019999999999914 39.29968319806613
13.049999999999914 39.28460606402677
13.079999999999913 39.26862446861989
13.109999999999912 39.25176057054978
13.139999999999912 39.234127824953376
13.169999999999911 39.215909424647
13.19999999999991 39.19732959289736
13.22999999999991 39.17862198056418
13.25999999999991 39.159999432773105
13.289999999999909 39.14162886913035
13.319999999999908 39.12361405506111
13.349999999999907 39.10598780575064
13.379999999999907 39.08871384563888
13.409999999999906 39.07169730124925
13.439999999999905 39.05480178297673
13.469999999999905 39.037870355436944
13.499999999999904 39.02074741813629
13.529999999999903 39.003298628774665
13.559999999999903 38.9854264831649
13.589999999999902 38.967079928732026
13.619999999999902 38.94825725792581
13.6499999999999 38.929002475010094
13.6799999999999 38.909396122301736
13.7099999999999 38.88954218402658
13.739999999999899 38.869553068094646
13.769999999999898 38.84953473215688
13.799999999999898 38.8295738403111
13.829999999999897 38.809728424441296
13.859999999999896 38.79002292850847
13.889999999999896 38.77044791654157
13.919999999999895 38.75096409588688
13.949999999999894 38.73150978751125
13.979999999999894 38.71201061346305
14.009999999999893 38.692390012172574
14.039999999999893 38.67257918210898
14.069999999999892 38.652525209614076
14.099999999999891 38.632196506258005
14.12999999999989 38.61158508881288
14.15999999999989 38.59070565910918
14.18999999999989 38.569591884516505
14.219999999999889 38.54829057292948
14.249999999999888 38.52685461085695
14.279999999999887 38.50533567132523
14.309999999999887 38.48377766806996
14.339999999999886 38.4622117399355
14.369999999999886 38.44065327716615
14.399999999999885 38.41910120106932
14.429999999999884 38.397539405300215
14.459999999999884 38.3759399887384
14.489999999999883 38.35426773046873
14.519999999999882 38.33248514480454
14.549999999999882 38.31055742427775
14.579999999999881 38.28845663671736
14.60999999999988 38.266164697502376
14.63999999999988 38.24367484320279
14.66999999999988 38.22099155389319
14.699999999999878 38.19812906383356
14.729999999999878 38.17510876281139
14.759999999999877 38.151955906433244
14.789999999999877 38.128696112070834
14.819999999999876 38.10535209354149
14.849999999999875 38.081941031285396
14.879999999999875 38.0584728663897
14.909999999999874 38.034949665131656
14.939999999999873 38.01136604000467
14.969999999999873 37.98771047680611
14.999999999999872 37.963967349814425
15.029999999999871 37.940119322898816
15.05999999999987 37.91614978973654
15.08999999999987 37.89204505336645
15.11999999999987 37.867795972826656
15.149999999999869 37.84339890177918
15.179999999999868 37.818855843353205
15.209999999999868 37.794173859071435
15.239999999999867 37.76936386623219
15.269999999999866 37.744439042236785
15.299999999999866 37.71941307690969
15.329999999999865 37.69429851416202
15.359999999999864 37.66910538441939
15.389999999999864 37.643840268543435
15.419999999999863 37.61850588342212
15.449999999999863 37.5931011775585
15.479999999999862 37.56762188336449
15.509999999999861 37.5420614337642
15.53999999999986 37.51641210315313
15.56999999999986 37.4906662030005
15.59999999999986 37.464817197725715
15.629999999999859 37.43886061380723
15.659999999999858 37.41279462881497
15.689999999999857 37.38662029304241
15.719999999999857 37.36034137710965
15.749999999999856 37.333963902547545
15.779999999999855 37.3074954154543
15.809999999999855 37.28094409465093
15.839999999999854 37.25431782349744
15.869999999999854 37.22762336226232
15.899999999999853 37.20086574259861
15.929999999999852 37.17404791884778
15.959999999999852 37.14717071767054
15.989999999999851 37.12023308730828
16.01999999999985 37.093232573620476
16.04999999999985 37.06616593021927
16.079999999999853 37.039029774694704
16.109999999999854 37.01182119453704
16.139999999999855 36.98453822866518
16.169999999999856 36.957180169181875
16.199999999999857 36.929747675722155
16.22999999999986 36.90224271055151
16.25999999999986 36.87466830258894
16.28999999999986 36.8470281841915
16.31999999999986 36.81932635270031
16.349999999999863 36.79156660319468
16.379999999999864 36.76375210161051
