# Results for "element" with Id # 2596017 for search config "initial" at position: x0: -250; y0: 0; z0: 142.24137931
# time VELOCITY_X
0.03 0.007157099424235786
0.06 0.029989456706078145
0.09 0.075955043330633
0.12 0.15029940008031023
0.15 0.25550515792370837
0.18 0.391130866473419
0.21 0.5539591841888942
0.24 0.7384029755479665
0.27 0.9371148657935848
0.30000000000000004 1.1417358001904823
0.33000000000000007 1.3437096398288324
0.3600000000000001 1.5350871160827289
0.3900000000000001 1.7092449057654235
0.42000000000000015 1.8614546765291748
0.4500000000000002 1.9892523740326917
0.4800000000000002 2.092578513146248
0.5100000000000002 2.173683726470784
0.5400000000000003 2.2368176220941325
0.5700000000000003 2.2877402339328112
0.6000000000000003 2.333111482110955
0.6300000000000003 2.3798233554262547
0.6600000000000004 2.434341349492723
0.6900000000000004 2.5021165170390165
0.7200000000000004 2.5871187626703716
0.7500000000000004 2.6915275430623447
0.7800000000000005 2.8156000073945764
0.8100000000000005 2.9577204354501068
0.8400000000000005 3.114619732621198
0.8700000000000006 3.2817403201604782
0.9000000000000006 3.4537103812318963
0.9300000000000006 3.6248824591844224
0.9600000000000006 3.789885542903206
0.9900000000000007 3.9441379531751366
1.0200000000000007 4.084271405892762
1.0500000000000007 4.208425045667695
1.0800000000000007 4.316381627574768
1.1100000000000008 4.4095349835253606
1.1400000000000008 4.490696288415917
1.1700000000000008 4.563763907188151
1.2000000000000008 4.633295375688902
1.2300000000000009 4.704028773948899
1.260000000000001 4.780403658977969
1.290000000000001 4.8661291917550065
1.320000000000001 4.963840007069622
1.350000000000001 5.074870119964601
1.380000000000001 5.1991629051706045
1.410000000000001 5.335322043876576
1.440000000000001 5.4807951456656125
1.470000000000001 5.632169312611073
1.500000000000001 5.785547149009029
1.5300000000000011 5.936963589289742
1.5600000000000012 6.082799552015586
1.5900000000000012 6.220148689552885
1.6200000000000012 6.347098674753284
1.6500000000000012 6.462898337173267
1.6800000000000013 6.567995285098282
1.7100000000000013 6.66394373056884
1.7400000000000013 6.753196994951667
1.7700000000000014 6.838811672144188
1.8000000000000014 6.924099121953086
1.8300000000000014 7.012264107532672
1.8600000000000014 7.106069774968404
1.8900000000000015 7.2075634285880685
1.9200000000000015 7.317889473711102
1.9500000000000015 7.437205637487251
1.9800000000000015 7.564707253243181
2.0100000000000016 7.698753045730184
2.0400000000000014 7.837075499271679
2.070000000000001 7.977050434857998
2.100000000000001 8.115994730001159
2.130000000000001 8.2514587713103
2.1600000000000006 8.381481675898824
2.1900000000000004 8.504782340165544
2.22 8.620867542804492
2.25 8.730048498657169
2.28 8.833368125883105
2.3099999999999996 8.932451421193234
2.3399999999999994 9.029299461544118
2.369999999999999 9.126052785498256
2.399999999999999 9.22475180979289
2.429999999999999 9.327120623957645
2.4599999999999986 9.434396355210586
2.4899999999999984 9.5472201203452
2.5199999999999982 9.665598082842438
2.549999999999998 9.788933247893143
2.579999999999998 9.91612109155704
2.6099999999999977 10.045695644000537
2.6399999999999975 10.17600781691176
2.6699999999999973 10.305415030337176
2.699999999999997 10.43246079932286
2.729999999999997 10.55602492653295
2.7599999999999967 10.675429039523447
2.7899999999999965 10.790487882875652
2.8199999999999963 10.901503364579247
2.849999999999996 11.009204967576437
2.879999999999996 11.11464601198095
2.9099999999999957 11.219069705119916
2.9399999999999955 11.323761516202435
2.9699999999999953 11.42990498198049
2.999999999999995 11.538456687859062
3.029999999999995 11.650053146523184
3.0599999999999947 11.764958102877928
3.0899999999999945 11.883053913720376
3.1199999999999943 12.003875636377707
3.149999999999994 12.126681854267932
3.179999999999994 12.250552503256671
3.2099999999999937 12.374501425560732
3.2399999999999936 12.497590295700192
3.2699999999999934 12.619031025380936
3.299999999999993 12.738265660107817
3.329999999999993 12.855015891822871
3.3599999999999928 12.969298174190213
3.3899999999999926 13.08140460199582
3.4199999999999924 13.191853652938168
3.449999999999992 13.301318127722745
3.479999999999992 13.410539829137521
3.509999999999992 13.520241478107508
3.5399999999999916 13.631046060077068
3.5699999999999914 13.743412340316597
3.599999999999991 13.85759291670399
3.629999999999991 13.973618245735395
3.659999999999991 14.091306923080987
3.6899999999999906 14.210299491333505
3.7199999999999904 14.33011051482402
3.7499999999999902 14.45019187165064
3.77999999999999 14.56999931862717
3.80999999999999 14.68905446293333
3.8399999999999896 14.806995258760765
3.8699999999999894 14.923609886615107
3.8999999999999893 15.038851129756614
3.929999999999989 15.152830814751043
3.959999999999989 15.265796250961381
3.9899999999999887 15.378092587055198
4.019999999999989 15.490116398165654
4.049999999999989 15.602266485402929
4.079999999999989 15.714897791347425
4.10999999999999 15.828283567313829
4.13999999999999 15.942589614395352
4.16999999999999 16.05786275152954
4.19999999999999 16.174033859191546
4.229999999999991 16.29093413270671
4.259999999999991 16.408321727656954
4.289999999999991 16.52591496819249
4.319999999999991 16.643427786692914
4.349999999999992 16.76060310498068
4.379999999999992 16.87724041036157
4.409999999999992 16.993214728767537
4.439999999999992 17.108485409886107
4.469999999999993 17.223094453257914
4.499999999999993 17.33715535565451
4.529999999999993 17.45083449844033
4.559999999999993 17.564327820182765
4.589999999999994 17.67783586109489
4.619999999999994 17.791540216917138
4.649999999999994 17.905584034723688
4.679999999999994 18.020058507236996
4.709999999999995 18.134996463020563
4.739999999999995 18.250373235815687
4.769999999999995 18.36611413226689
4.799999999999995 18.482107105248925
4.829999999999996 18.598218738984876
4.859999999999996 18.714311425338305
4.889999999999996 18.830259636334368
4.919999999999996 18.94596347877312
4.949999999999997 19.06135817608584
4.979999999999997 19.17641870864297
5.009999999999997 19.29115947298187
5.039999999999997 19.405629414789818
5.069999999999998 19.519903575808545
5.099999999999998 19.634072327881753
5.129999999999998 19.74822973929191
5.159999999999998 19.862462487436158
5.189999999999999 19.97684055543375
5.219999999999999 20.091410634835945
5.249999999999999 20.20619276907226
5.279999999999999 20.321180348468893
5.31 20.436343173135164
5.34 20.551632973786916
5.37 20.6669905498196
5.4 20.782353565625538
5.430000000000001 20.89766405624285
5.460000000000001 21.012874799640034
5.490000000000001 21.127953920319843
5.520000000000001 21.24288734458721
5.550000000000002 21.357679004573477
5.580000000000002 21.47234895439935
5.610000000000002 21.58692979036408
5.640000000000002 21.70146192854251
5.670000000000003 21.815988374823224
5.700000000000003 21.930549629854717
5.730000000000003 22.045179302565415
5.760000000000003 22.15990087843747
5.790000000000004 22.274725921232534
5.820000000000004 22.389653793916317
5.850000000000004 22.504672806782263
5.880000000000004 22.61976254454572
5.910000000000005 22.73489700664551
5.940000000000005 22.850048132825663
5.970000000000005 22.96518927672765
6.000000000000005 23.080298231963337
6.030000000000006 23.195359493096355
6.060000000000006 23.31036554898418
6.090000000000006 23.42531713765147
6.120000000000006 23.540222518543207
6.150000000000007 23.65509592425232
6.180000000000007 23.769955436355964
6.210000000000007 23.88482057939468
6.240000000000007 23.999709936335783
6.270000000000008 24.11463906288341
6.300000000000008 24.229618919033676
6.330000000000008 24.344654958555548
6.360000000000008 24.45974693078721
6.390000000000009 24.57488936142636
6.420000000000009 24.690072601737658
6.450000000000009 24.80528427477837
6.480000000000009 24.920510920234314
6.51000000000001 25.035739627980515
6.54000000000001 25.150959463486917
6.57000000000001 25.266162535032635
6.60000000000001 25.38134461019024
6.6300000000000106 25.496505240797163
6.660000000000011 25.61164741963151
6.690000000000011 25.726776850146578
6.720000000000011 25.841900945637263
6.7500000000000115 25.95702769806288
6.780000000000012 26.072164564682208
6.810000000000012 26.18731749977725
6.840000000000012 26.302490239036178
6.8700000000000125 26.417683900743018
6.900000000000013 26.532896924643712
6.930000000000013 26.648125333813688
6.960000000000013 26.76336325484411
6.9900000000000135 26.878603610126635
7.020000000000014 26.99383888781087
7.050000000000014 27.109061888761968
7.080000000000014 27.224266366650408
7.1100000000000145 27.339447493940675
7.140000000000015 27.45460211001373
7.170000000000015 27.56972874396378
7.200000000000015 27.684827426984473
7.2300000000000155 27.799899334817827
7.260000000000016 27.914946319119778
7.290000000000016 28.02997039407548
7.320000000000016 28.144973242785824
7.3500000000000165 28.259955799097412
7.380000000000017 28.374917949933646
7.410000000000017 28.48985838402525
7.440000000000017 28.60477459365411
7.4700000000000175 28.71966301583467
7.500000000000018 28.83451928351043
7.530000000000018 28.949338547494435
7.560000000000018 29.064115825142146
7.5900000000000185 29.178846331740942
7.620000000000019 29.293525757461964
7.650000000000019 29.408150460833017
7.680000000000019 29.52271756285506
7.7100000000000195 29.637224940915527
7.74000000000002 29.751671131612724
7.77000000000002 29.86605516351741
7.80000000000002 29.980376344962433
7.8300000000000205 30.094634036773485
7.860000000000021 30.208827438095458
7.890000000000021 30.32295540975493
7.920000000000021 30.437016353724868
7.9500000000000215 30.551008158042595
7.980000000000022 30.664928208306623
8.010000000000021 30.778773458696048
8.04000000000002 30.892540548786968
8.07000000000002 31.0062259499641
8.10000000000002 31.11982612017269
8.130000000000019 31.23333764862548
8.160000000000018 31.346757374782328
8.190000000000017 31.46008246955907
8.220000000000017 31.57331047410496
8.250000000000016 31.686439294617283
8.280000000000015 31.799467155969857
8.310000000000015 31.912392524214212
8.340000000000014 32.02521401008676
8.370000000000013 32.137930268143656
8.400000000000013 32.250539903547356
8.430000000000012 32.36304139811571
8.460000000000012 32.475433061835076
8.49000000000001 32.58771301495211
8.52000000000001 32.69987919853621
8.55000000000001 32.81192940943914
8.580000000000009 32.92386135415783
8.610000000000008 33.035672713262954
8.640000000000008 33.14736120829771
8.670000000000007 33.258924663797856
8.700000000000006 33.37036105797893
8.730000000000006 33.48166855823558
8.760000000000005 33.59284554100642
8.790000000000004 33.70389058815025
8.820000000000004 33.814802467761325
8.850000000000003 33.925580101303204
8.880000000000003 34.03622252162688
8.910000000000002 34.146728826649216
8.940000000000001 34.257098134542446
8.97 34.36732954456609
9.0 34.477422110901024
9.03 34.58737482846549
9.059999999999999 34.69718663435025
9.089999999999998 34.80685642413492
9.119999999999997 34.91638307898674
9.149999999999997 35.025765497321814
9.179999999999996 35.135002627317235
9.209999999999996 35.24409349839879
9.239999999999995 35.35303724942514
9.269999999999994 35.46183314731657
9.299999999999994 35.57048059368655
9.329999999999993 35.678979122984714
9.359999999999992 35.787328390397015
9.389999999999992 35.895528151722964
9.419999999999991 36.003578239000944
9.44999999999999 36.11147853681758
9.47999999999999 36.21922896160021
9.50999999999999 36.32682944946167
9.539999999999988 36.434279950357556
9.569999999999988 36.54158043099285
9.599999999999987 36.64873087548743
9.629999999999987 36.75573128838218
9.659999999999986 36.86258170527048
9.689999999999985 36.96928221116896
9.719999999999985 37.0758329620095
9.749999999999984 37.1822342030312
9.779999999999983 37.28848627472947
9.809999999999983 37.39458961725151
9.839999999999982 37.5005447741696
9.869999999999981 37.60635239462812
9.89999999999998 37.712013232795556
9.92999999999998 37.81752814112282
9.95999999999998 37.922898059034786
9.989999999999979 38.02812399740893
10.019999999999978 38.12568500029113
10.049999999999978 38.20339843613051
10.079999999999977 38.25062095208162
10.109999999999976 38.26109821091007
10.139999999999976 38.23413590482213
10.169999999999975 38.174577381348584
10.199999999999974 38.09183819403296
10.229999999999974 37.998244117102736
10.259999999999973 37.90698248895877
10.289999999999973 37.83001931293192
10.319999999999972 37.77632250440965
10.349999999999971 37.75066222220636
10.37999999999997 37.75314807296216
10.40999999999997 37.779532415484425
10.43999999999997 37.82218219055352
10.469999999999969 37.87151868516758
10.499999999999968 37.917660680799635
10.529999999999967 37.951990192008296
10.559999999999967 37.968392764097125
10.589999999999966 37.96399734865463
10.619999999999965 37.93933950618932
10.649999999999965 37.89797482063492
10.679999999999964 37.845657786816425
10.709999999999964 37.78926013758279
10.739999999999963 37.73562488093142
10.769999999999962 37.690539635155545
10.799999999999962 37.657972921607126
10.829999999999961 37.63966025026528
10.85999999999996 37.635065085864895
10.88999999999996 37.64168144385024
10.919999999999959 37.65559830926644
10.949999999999958 37.672215770461925
10.979999999999958 37.686991206622274
11.009999999999957 37.69610124061212
11.039999999999957 37.69692906731763
11.069999999999956 37.68832219856728
11.099999999999955 37.67060646431913
11.129999999999955 37.64538059613655
11.159999999999954 37.61514670020582
11.189999999999953 37.582850389517404
11.219999999999953 37.55140908018788
11.249999999999952 37.523299099202774
11.279999999999951 37.50025465977237
11.30999999999995 37.48310857677881
11.33999999999995 37.47178020084485
11.36999999999995 37.46539401718891
11.399999999999949 37.46249588630684
11.429999999999948 37.4613240242124
11.459999999999948 37.46008952729228
11.489999999999947 37.45722573476482
11.519999999999946 37.45157538957234
11.549999999999946 37.442497512123566
11.579999999999945 37.42988973523834
11.609999999999944 37.414134396369995
11.639999999999944 37.39598627814916
11.669999999999943 37.37642539005132
11.699999999999942 37.35649962281616
11.729999999999942 37.337179718086894
11.759999999999941 37.31924387474605
11.78999999999994 37.30320271931125
11.81999999999994 37.289268432144134
11.84999999999994 37.27736560047007
11.879999999999939 37.267176503874715
11.909999999999938 37.25821043442265
11.939999999999937 37.249885310841954
11.969999999999937 37.24161007139435
11.999999999999936 37.23285792111039
12.029999999999935 37.22322291975523
12.059999999999935 37.212455342112584
12.089999999999934 37.20047425925974
12.119999999999933 37.187358585916975
12.149999999999933 37.173320146241316
12.179999999999932 37.15866390663134
12.209999999999932 37.143741389231224
12.239999999999931 37.12890341846331
12.26999999999993 37.11445774857049
12.29999999999993 37.10063603560837
12.329999999999929 37.0875731211328
12.359999999999928 37.075299924107966
12.389999999999928 37.06374955468131
12.419999999999927 37.05277475402645
12.449999999999926 37.04217359246611
12.479999999999926 37.031719613641634
12.509999999999925 37.02119234286042
12.539999999999925 37.010404379857384
12.569999999999924 36.99922196368654
12.599999999999923 36.987576990852425
12.629999999999923 36.97546968193875
12.659999999999922 36.962962366538704
12.689999999999921 36.95016594983586
12.71999999999992 36.93722142994326
12.74999999999992 36.92427928281374
12.77999999999992 36.911479549210156
12.809999999999919 36.898935105601765
12.839999999999918 36.88671999972101
12.869999999999918 36.87486387681466
12.899999999999917 36.863352645234286
12.929999999999916 36.852134719889
12.959999999999916 36.841131503065064
12.989999999999915 36.830250349267516
13.019999999999914 36.81939810550496
13.049999999999914 36.808493411247326
13.079999999999913 36.797476288558144
13.109999999999912 36.78631404154805
13.139999999999912 36.7750030634262
13.169999999999911 36.763566729899175
13.19999999999991 36.752050039140805
13.22999999999991 36.7405120047541
13.25999999999991 36.729016990691996
13.289999999999909 36.717626199381314
13.319999999999908 36.706390378858735
13.349999999999907 36.69534455230595
13.379999999999907 36.68450524918159
13.409999999999906 36.67387035842428
13.439999999999905 36.663421372351145
13.469999999999905 36.653127522700494
13.499999999999904 36.642951108626484
13.529999999999903 36.63285321908296
13.559999999999903 36.622799070133084
13.589999999999902 36.6127623154873
13.619999999999902 36.602727865448664
13.6499999999999 36.592693002245255
13.6799999999999 36.58266679422837
13.7099999999999 36.5726680338237
13.739999999999899 36.56272210120696
13.769999999999898 36.55285724488132
13.799999999999898 36.54310080534678
13.829999999999897 36.5334758767586
13.859999999999896 36.52399877407707
13.889999999999896 36.514677567591576
13.919999999999895 36.50551177924033
13.949999999999894 36.49649318057931
13.979999999999894 36.48760750181594
14.009999999999893 36.478836779281096
14.039999999999893 36.47016199943955
14.069999999999892 36.461565650467094
14.099999999999891 36.453033872385255
14.12999999999989 36.444557967447736
14.15999999999989 36.43613511347933
14.18999999999989 36.42776826266349
14.219999999999889 36.419465294131804
14.249999999999888 36.41123755176022
14.279999999999887 36.40309800637818
14.309999999999887 36.395059336600525
14.339999999999886 36.387132197530455
14.369999999999886 36.37932387805942
14.399999999999885 36.37163748748456
14.429999999999884 36.364071738894225
14.459999999999884 36.35662130195526
14.489999999999883 36.34927764383606
14.519999999999882 36.34203022524074
14.549999999999882 36.334867870541686
14.579999999999881 36.32778010731747
14.60999999999988 36.32075830451748
14.63999999999988 36.313796487435035
14.66999999999988 36.306891759534295
14.699999999999878 36.30004430559373
14.729999999999878 36.29325700158697
14.759999999999877 36.286534708433365
14.789999999999877 36.27988336317919
14.819999999999876 36.273308989647404
14.849999999999875 36.26681676055531
14.879999999999875 36.260410232463165
14.909999999999874 36.254090841092804
14.939999999999873 36.24785769605598
14.969999999999873 36.241707671440366
14.999999999999872 36.235635778948065
15.029999999999871 36.2296357652113
15.05999999999987 36.22370083215695
15.08999999999987 36.21782439292007
15.11999999999987 36.21200075383801
15.149999999999869 36.20622563420385
15.179999999999868 36.20049645621227
15.209999999999868 36.19481238363968
15.239999999999867 36.189174126476395
15.269999999999866 36.183583561785994
15.299999999999866 36.17804323446606
15.329999999999865 36.17255581749169
15.359999999999864 36.167123601429815
15.389999999999864 36.16174806992081
15.419999999999863 36.15642961359836
15.449999999999863 36.15116738601678
15.479999999999862 36.145959307395756
15.509999999999861 36.140802213788675
15.53999999999986 36.13569212935668
15.56999999999986 36.13062461199596
15.59999999999986 36.12559514698472
15.629999999999859 36.120599545647735
15.659999999999858 36.11563428917996
15.689999999999857 36.11069678044714
15.719999999999857 36.105785469721674
15.749999999999856 36.10089984878989
15.779999999999855 36.096040304431924
15.809999999999855 36.09120784132695
15.839999999999854 36.08640372364649
15.869999999999854 36.08162910033266
15.899999999999853 36.07688468265857
15.929999999999852 36.07217049025228
15.959999999999852 36.06748571127073
15.989999999999851 36.06282869574542
16.01999999999985 36.058197054805824
16.04999999999985 36.05358782821449
16.079999999999853 36.04899769070555
16.109999999999854 36.044423165950846
16.139999999999855 36.039860824092635
16.169999999999856 36.035307441667705
16.199999999999857 36.03076012119041
16.22999999999986 36.026216369327926
16.25999999999986 36.02167411075926
16.28999999999986 36.01713163778793
16.31999999999986 36.01258749944132
16.349999999999863 36.00804033933453
