# Results for "element" with Id # 2664381 for search config "initial" at position: x0: -250; y0: 0; z0: 181.034482759
# time VELOCITY_X
0.03 0.007181542893843018
0.06 0.030094289672954355
0.09 0.07622779702919015
0.12 0.1508557174652818
0.15 0.2564825276092953
0.18 0.3926795968033482
0.21 0.5562307840371704
0.24 0.7415366953958608
0.27 0.941223869091181
0.30000000000000004 1.1468949669638129
0.33000000000000007 1.349947100806612
0.3600000000000001 1.5423811778548422
0.3900000000000001 1.7175271480734309
0.42000000000000015 1.8706188938946078
0.4500000000000002 1.999168003398617
0.4800000000000002 2.1031064817887257
0.5100000000000002 2.184692403096753
0.5400000000000003 2.2481967474535822
0.5700000000000003 2.2994112173119503
0.6000000000000003 2.3450331191029394
0.6300000000000003 2.391992685056029
0.6600000000000004 2.4467899583587926
0.6900000000000004 2.5149030692495593
0.7200000000000004 2.6003189162010916
0.7500000000000004 2.705222697377642
0.7800000000000005 2.829866486176952
0.8100000000000005 2.972620679188828
0.8400000000000005 3.1301967967612603
0.8700000000000006 3.298016434721438
0.9000000000000006 3.470689579480368
0.9300000000000006 3.6425564863192115
0.9600000000000006 3.808241577844839
0.9900000000000007 3.9631663203700893
1.0200000000000007 4.103971494130186
1.0500000000000007 4.22880809500812
1.0800000000000007 4.337469772573739
1.1100000000000008 4.431356763599805
1.1400000000000008 4.513279561196303
1.1700000000000008 4.587127580713359
1.2000000000000008 4.657441561109161
1.2300000000000009 4.72893685747891
1.260000000000001 4.806027489109543
1.290000000000001 4.8923981356811765
1.320000000000001 4.990664126486341
1.350000000000001 5.102149182111543
1.380000000000001 5.226798400176445
1.410000000000001 5.36323086282767
1.440000000000001 5.508923145752982
1.470000000000001 5.660502748847679
1.500000000000001 5.814119973021426
1.5300000000000011 5.965858984365067
1.5600000000000012 6.11214477551607
1.5900000000000012 6.2501032684720705
1.6200000000000012 6.377837065386454
1.6500000000000012 6.49458913523838
1.6800000000000013 6.600779740286628
1.7100000000000013 6.697916557502419
1.7400000000000013 6.788392228224263
1.7700000000000014 6.875195640209739
1.8000000000000014 6.961571651354573
1.8300000000000014 7.050667974203631
1.8600000000000014 7.145207372118426
1.8900000000000015 7.247218735919661
1.9200000000000015 7.357852788939422
1.9500000000000015 7.47729819770845
1.9800000000000015 7.604802853878217
2.0100000000000016 7.738794046081175
2.0400000000000014 7.877081175858095
2.070000000000001 8.017116473756507
2.100000000000001 8.15628366860111
2.130000000000001 8.292182312836005
2.1600000000000006 8.422876854396758
2.1900000000000004 8.547084362940621
2.22 8.664282624314026
2.25 8.774730036817118
2.28 8.87939914184749
2.3099999999999996 8.97983535104541
2.3399999999999994 9.077960297088966
2.369999999999999 9.17584438034095
2.399999999999999 9.275475072589101
2.429999999999999 9.37854644338988
2.4599999999999986 9.48629153286422
2.4899999999999984 9.59937335064583
2.5199999999999982 9.717843111352693
2.549999999999998 9.841166718985988
2.579999999999998 9.968313212090335
2.6099999999999977 10.097892584896087
2.6399999999999975 10.228325674744546
2.6699999999999973 10.358026096257055
2.699999999999997 10.485573737966904
2.729999999999997 10.609861152010255
2.7599999999999967 10.730197999591805
2.7899999999999965 10.846364067900687
2.8199999999999963 10.95860762068428
2.849999999999996 11.067592148882424
2.879999999999996 11.174300231806466
2.9099999999999957 11.27990754444959
2.9399999999999955 11.38564264074155
2.9699999999999953 11.492648812218382
2.999999999999995 11.601863143514603
3.029999999999995 11.713925102746092
3.0599999999999947 11.82912307264287
3.0899999999999945 11.947382607243421
3.1199999999999943 12.068295424978034
3.149999999999994 12.191183741677724
3.179999999999994 12.315190927164132
3.2099999999999937 12.439387008347698
3.2399999999999936 12.562876450205845
3.2699999999999934 12.684896011789915
3.299999999999993 12.804892199574073
3.329999999999993 12.922570703663688
3.3599999999999928 13.037913782624834
3.3899999999999926 13.15116545666126
3.4199999999999924 13.262788064182924
3.449999999999992 13.373396807378832
3.479999999999992 13.483681041519038
3.509999999999992 13.594322042932273
3.5399999999999916 13.705916796177839
3.5699999999999914 13.818916069005908
3.599999999999991 13.933582902469151
3.629999999999991 14.049974956604558
3.659999999999991 14.167951236950445
3.6899999999999906 14.287200925541407
3.7199999999999904 14.407289661157122
3.7499999999999902 14.527716907354172
3.77999999999999 14.647977156326252
3.80999999999999 14.767617716757005
3.8399999999999896 14.886286668356462
3.8699999999999894 15.00376609868354
3.8999999999999893 15.119987759157006
3.929999999999989 15.235030497304539
3.959999999999989 15.349100988641492
3.9899999999999887 15.462501131222835
4.019999999999989 15.57558679138182
4.049999999999989 15.688723266552671
4.079999999999989 15.8022428367371
4.10999999999999 15.916409151663169
4.13999999999999 16.031392069921015
4.16999999999999 16.14725509690869
4.19999999999999 16.263955955624496
4.229999999999991 16.381359271910593
4.259999999999991 16.499259020675993
4.289999999999991 16.617407425318632
4.319999999999991 16.73554649404864
4.349999999999992 16.85343835088005
4.379999999999992 16.97089094303515
4.409999999999992 17.08777650012289
4.439999999999992 17.2040411624731
4.469999999999993 17.31970534575084
4.499999999999993 17.434855522634166
4.529999999999993 17.549629045992546
4.559999999999993 17.664194322789974
4.589999999999994 17.77872900250044
4.619999999999994 17.89339885927767
4.649999999999994 18.008339746307158
4.679999999999994 18.123644454370428
4.709999999999995 18.23935558505878
4.739999999999995 18.355464763828174
4.769999999999995 18.471917759392525
4.799999999999995 18.588624434039787
4.829999999999996 18.705471977215137
4.859999999999996 18.82233963316804
4.889999999999996 18.939113105544294
4.919999999999996 19.055697017507057
4.949999999999997 19.172024162074884
4.979999999999997 19.288060753488775
5.009999999999997 19.40380741806703
5.039999999999997 19.519296176698795
5.069999999999998 19.634584105693968
5.099999999999998 19.749744678772913
5.129999999999998 19.864857981002267
5.159999999999998 19.98000100206452
5.189999999999999 20.0952391089014
5.219999999999999 20.21061956399314
5.249999999999999 20.326167651343994
5.279999999999999 20.44188562400176
5.31 20.557754349956248
5.34 20.673737241122982
5.37 20.7897858281317
5.4 20.905846208970615
5.430000000000001 21.021865571585753
5.460000000000001 21.137798043282473
5.490000000000001 21.25360926429422
5.520000000000001 21.36927927651255
5.550000000000002 21.48480354101871
5.580000000000002 21.600192124130956
5.610000000000002 21.71546729670662
5.640000000000002 21.830659950051277
5.670000000000003 21.945805329349394
5.700000000000003 22.06093862369995
5.730000000000003 22.17609092357202
5.760000000000003 22.29128597452348
5.790000000000004 22.406538033214762
5.820000000000004 22.521850978255355
5.850000000000004 22.637218676827892
5.880000000000004 22.752626465658317
5.910000000000005 22.868053488228238
5.940000000000005 22.98347555453207
5.970000000000005 23.09886815604768
6.000000000000005 23.214209280733634
6.030000000000006 23.32948171871207
6.060000000000006 23.444674632816586
6.090000000000006 23.559784272144753
6.120000000000006 23.674813815367393
6.150000000000007 23.78977242911424
6.180000000000007 23.904673710985122
6.210000000000007 24.01953374572064
6.240000000000007 24.134369030278254
6.270000000000008 24.249194519491837
6.300000000000008 24.364022008649748
6.330000000000008 24.478859013666593
6.360000000000008 24.593708240951162
6.390000000000009 24.70856766301499
6.420000000000009 24.82343114384993
6.450000000000009 24.938289495608018
6.480000000000009 25.053131811906958
6.51000000000001 25.167946900198082
6.54000000000001 25.282724632663328
6.57000000000001 25.397457065351755
6.60000000000001 25.512139216149468
6.6300000000000106 25.626769433645265
6.660000000000011 25.741349345090743
6.690000000000011 25.855883425468488
6.720000000000011 25.970378267365454
6.7500000000000115 26.08484166132679
6.780000000000012 26.199281613004022
6.810000000000012 26.313705415533597
6.840000000000012 26.42811888571684
6.8700000000000125 26.54252584067695
6.900000000000013 26.656927855991828
6.930000000000013 26.771324315385588
6.960000000000013 26.8857127169218
6.9900000000000135 27.000089176019628
7.020000000000014 27.11444905135945
7.050000000000014 27.22878760724869
7.080000000000014 27.34310063366247
7.1100000000000145 27.457384953862288
7.140000000000015 27.571638766406924
7.170000000000015 27.685861797701087
7.200000000000015 27.800055261445593
7.2300000000000155 27.914221646090652
7.260000000000016 28.028364370515156
7.290000000000016 28.142487360079016
7.320000000000016 28.256594598775422
7.3500000000000165 28.370689711092886
7.380000000000017 28.484775621044466
7.410000000000017 28.598854322232462
7.440000000000017 28.712926777142318
7.4700000000000175 28.82699294596191
7.500000000000018 28.941051929883972
7.530000000000018 29.055102202435734
7.560000000000018 29.169141894125517
7.5900000000000185 29.283169091937474
7.620000000000019 29.397182117344393
7.650000000000019 29.511179750955385
7.680000000000019 29.625161381534248
7.7100000000000195 29.73912706887037
7.74000000000002 29.853077519619568
7.77000000000002 29.967013986831745
7.80000000000002 30.0809381104184
7.8300000000000205 30.194851722604604
7.860000000000021 30.30875664346084
7.890000000000021 30.422654490883644
7.920000000000021 30.53654652646785
7.9500000000000215 30.650433551952215
7.980000000000022 30.76431586426483
8.010000000000021 30.878193269058556
8.04000000000002 30.992065146242755
8.07000000000002 31.105930556606957
8.10000000000002 31.21978837228852
8.130000000000019 31.33363741409132
8.160000000000018 31.44747657917438
8.190000000000017 31.561304944480664
8.220000000000017 31.675121836862346
8.250000000000016 31.78892686377474
8.280000000000015 31.902719902666863
8.310000000000015 32.01650105404674
8.340000000000014 32.13027056666662
8.370000000000013 32.24402874691865
8.400000000000013 32.357775863854776
8.430000000000012 32.47151206233785
8.460000000000012 32.58523729310075
8.49000000000001 32.69895126780097
8.52000000000001 32.812653440803224
8.55000000000001 32.9263430174774
8.580000000000009 33.040018986686874
8.610000000000008 33.15368017112125
8.640000000000008 33.267325288744296
8.670000000000007 33.380953018218285
8.700000000000006 33.494562060550386
8.730000000000006 33.60815119084993
8.760000000000005 33.72171929677467
8.790000000000004 33.835265394551755
8.820000000000004 33.94878862719601
8.850000000000003 34.062288245009285
8.880000000000003 34.17576357170092
8.910000000000002 34.28921396069474
8.940000000000001 34.402638747809874
8.97 34.51603720546299
9.0 34.62940850620292
9.03 34.74275169691907
9.059999999999999 34.85606568879738
9.089999999999998 34.96934926345129
9.119999999999997 35.082601092721376
9.149999999999997 35.19581976701738
9.179999999999996 35.309003828882254
9.209999999999996 35.42215180936485
9.239999999999995 35.53526226414044
9.269999999999994 35.64833380254366
9.299999999999994 35.76136510557899
9.329999999999993 35.87435493504172
9.359999999999992 35.9873021308639
9.389999999999992 36.10020559821689
9.419999999999991 36.21306428757646
9.44999999999999 36.32587717207887
9.47999999999999 36.438643225039456
9.50999999999999 36.55136140323502
9.539999999999988 36.66403063569957
9.569999999999988 36.77664982070478
9.599999999999987 36.88921782276419
9.629999999999987 37.00173347372426
9.659999999999986 37.11419558264299
9.689999999999985 37.22660295478681
9.719999999999985 37.338954414907406
9.749999999999984 37.45124882937158
9.779999999999983 37.563485118674734
9.809999999999983 37.67566226889718
9.839999999999982 37.78777934125669
9.869999999999981 37.89983547848694
9.89999999999998 38.01182990684956
9.92999999999998 38.12376193128903
9.95999999999998 38.235630924471714
9.989999999999979 38.3474363106798
10.019999999999978 38.45162345225524
10.049999999999978 38.53600300541078
10.079999999999977 38.589972192631976
10.109999999999976 38.607317731422924
10.139999999999976 38.587343506580524
10.169999999999975 38.53482830786824
10.199999999999974 38.45906382982524
10.229999999999974 38.37221629129461
10.259999999999973 38.287315812471206
10.289999999999973 38.216217132211376
10.319999999999972 38.1678613489681
10.349999999999971 38.147099526697254
10.37999999999997 38.15423090746581
10.40999999999997 38.18528270918681
10.43999999999997 38.23293716817122
10.469999999999969 38.287913509224154
10.499999999999968 38.34055200867502
10.529999999999967 38.38233198661529
10.559999999999967 38.40708626174693
10.589999999999966 38.41174304950144
10.619999999999965 38.396518956702536
10.649999999999965 38.36458401481271
10.679999999999964 38.321303854334296
10.709999999999964 38.27322114332285
10.739999999999963 38.226961588793536
10.769999999999962 38.18823993151926
10.799999999999962 38.161105273580986
10.829999999999961 38.14751227543402
10.85999999999996 38.147246544398335
10.88999999999996 38.15817698839883
10.919999999999959 38.17676319692829
10.949999999999958 38.19871635819201
10.979999999999958 38.21970028682141
11.009999999999957 38.23596490679576
11.039999999999957 38.24482579152478
11.069999999999956 38.24493550194441
11.099999999999955 38.23632985680685
11.129999999999955 38.220267909392874
11.159999999999954 38.19891354606282
11.189999999999953 38.17492454357813
11.219999999999953 38.15102042039119
11.249999999999952 38.129594345713656
11.279999999999951 38.11241922956951
11.30999999999995 38.10047764974431
11.33999999999995 38.09392344362148
11.36999999999995 38.0921628893139
11.399999999999949 38.09402832735015
11.429999999999948 38.098007732407225
11.459999999999948 38.10249104501651
11.489999999999947 38.10599726026375
11.519999999999946 38.10735397556665
11.549999999999946 38.10581172396473
11.579999999999945 38.101086951959466
11.609999999999944 38.09333815063647
11.639999999999944 38.08308803633996
11.669999999999943 38.07110983553762
11.699999999999942 38.058297655269435
11.729999999999942 38.045539729575246
11.759999999999941 38.0336098638945
11.78999999999994 38.02308763165388
11.81999999999994 38.01431263689648
11.84999999999994 38.00737327748532
11.879999999999939 38.00212639944199
11.909999999999938 37.99824135462719
11.939999999999937 37.99526027760553
11.969999999999937 37.99266579126523
11.999999999999936 37.98994777592242
12.029999999999935 37.98666195545418
12.059999999999935 37.98247476640898
12.089999999999934 37.97719100357534
12.119999999999933 37.970762907507535
12.149999999999933 37.96328146667596
12.179999999999932 37.95495252582836
12.209999999999932 37.946061721717804
12.239999999999931 37.936933199943056
12.26999999999993 37.92788734557143
12.29999999999993 37.91920251545044
12.329999999999929 37.91108494262919
12.359999999999928 37.903649759039325
12.389999999999928 37.896914577038146
12.419999999999927 37.89080547665498
12.449999999999926 37.88517375996862
12.479999999999926 37.87982061590003
12.509999999999925 37.87452602406955
12.539999999999925 37.86907797138067
12.569999999999924 37.86329824953074
12.599999999999923 37.857061840658446
12.629999999999923 37.850307924151174
12.659999999999922 37.84304179462141
12.689999999999921 37.83532821049806
12.71999999999992 37.82727776168487
12.74999999999992 37.81902862859582
12.77999999999992 37.81072648554223
12.809999999999919 37.80250528702031
12.839999999999918 37.79447134182426
12.869999999999918 37.78669240942424
12.899999999999917 37.77919274677209
12.929999999999916 37.77195418926543
12.959999999999916 37.76492254721248
12.989999999999915 37.75801799373708
13.019999999999914 37.75114773570922
13.049999999999914 37.74421911997336
13.079999999999913 37.73715146120829
13.109999999999912 37.72988520535881
13.139999999999912 37.72238752303968
13.169999999999911 37.714653983805604
13.19999999999991 37.70670648789693
13.22999999999991 37.69858808034087
13.25999999999991 37.69035559929856
13.289999999999909 37.68207129332666
13.319999999999908 37.6737945535291
13.349999999999907 37.665574780052566
13.379999999999907 37.65744617203077
13.409999999999906 37.649424922433056
13.439999999999905 37.64150894601733
13.469999999999905 37.63367995293652
13.499999999999904 37.62590739412405
13.529999999999903 37.61815360500202
13.559999999999903 37.61037937706304
13.589999999999902 37.6025492186112
13.619999999999902 37.594635663293545
13.6499999999999 37.58662217738993
13.6799999999999 37.57850441507633
13.7099999999999 37.57028980666707
13.739999999999899 37.56199568250497
13.769999999999898 37.55364629428624
13.799999999999898 37.54526920492274
13.829999999999897 37.53689156768565
13.859999999999896 37.528536758001806
13.889999999999896 37.5202217615596
13.919999999999895 37.51195558599463
13.949999999999894 37.50373881230149
13.979999999999894 37.495564252406574
14.009999999999893 37.48741855577381
14.039999999999893 37.47928449432515
14.069999999999892 37.47114355549034
14.099999999999891 37.46297849592338
14.12999999999989 37.45477553628888
14.15999999999989 37.4465259301872
14.18999999999989 37.4382267600575
14.219999999999889 37.42988091142769
14.249999999999888 37.42149626580702
14.279999999999887 37.41308427875762
14.309999999999887 37.40465819936403
14.339999999999886 37.39623120411979
14.369999999999886 37.387814682579545
14.399999999999885 37.3794168814752
14.429999999999884 37.371042058846896
14.459999999999884 37.36269020943753
14.489999999999883 37.354357359048315
14.519999999999882 37.3460363578575
14.549999999999882 37.33771803139663
14.579999999999881 37.32939249815689
14.60999999999988 37.32105047229158
14.63999999999988 37.31268439455117
14.66999999999988 37.304289266365224
14.699999999999878 37.29586309935956
14.729999999999878 37.28740694536506
14.759999999999877 37.278924533245934
14.789999999999877 37.270421587552434
14.819999999999876 37.26190493307609
14.849999999999875 37.25338151588828
14.879999999999875 37.24485747778568
14.909999999999874 37.236337400325624
14.939999999999873 37.22782379782352
14.969999999999873 37.219316900709174
14.999999999999872 37.21081475199689
15.029999999999871 37.202313589813656
15.05999999999987 37.19380843763481
15.08999999999987 37.18529382299319
15.11999999999987 37.1767645153899
15.149999999999869 37.16821618181169
15.179999999999868 37.159645869601036
15.209999999999868 37.15105226808995
15.239999999999867 37.14243573685118
15.269999999999866 37.13379811699545
15.299999999999866 37.12514236519014
15.329999999999865 37.116472077373075
15.359999999999864 37.107790970389615
15.389999999999864 37.099102387439906
15.419999999999863 37.090408893644124
15.449999999999863 37.08171198690398
15.479999999999862 37.07301195072496
15.509999999999861 37.064307863191324
15.53999999999986 37.055597756271226
15.56999999999986 37.046878887719416
15.59999999999986 37.03814810504132
15.629999999999859 37.02940225697074
15.659999999999858 37.02063859053307
15.689999999999857 37.01185508622356
15.719999999999857 37.00305068450942
15.749999999999856 36.994225380182556
15.779999999999855 36.985380167125534
15.809999999999855 36.976516835165334
15.839999999999854 36.967637660426604
15.869999999999854 36.958745047481585
15.899999999999853 36.949841188907584
15.929999999999852 36.94092776722527
15.959999999999852 36.93200575205085
15.989999999999851 36.923075316980096
16.01999999999985 36.91413586153259
16.04999999999985 36.90518611160669
16.079999999999853 36.89622427562253
16.109999999999854 36.88724823329795
16.139999999999855 36.878255734737465
16.169999999999856 36.869244588084186
16.199999999999857 36.86021282455842
16.22999999999986 36.85115883237913
16.25999999999986 36.84208142892638
16.28999999999986 36.83297986288154
16.31999999999986 36.82385374344507
16.349999999999863 36.81470290480511
16.379999999999864 36.805527229865504
