# Results for "element" with Id # 2644715 for search config "initial" at position: x0: -250; y0: 0; z0: 232.75862069
# time VELOCITY_X
0.03 0.007224093667334697
0.06 0.030275004635609084
0.09 0.07669431311873869
0.12 0.15180063427585144
0.15 0.2581315756879942
0.18 0.3952750077812843
0.21 0.5600101116038126
0.24 0.7467085428678952
0.27 0.9479434831732036
0.30000000000000004 1.1552437653361132
0.33000000000000007 1.3599203546475156
0.3600000000000001 1.5538870378553657
0.3900000000000001 1.7303981820462147
0.42000000000000015 1.884634817561781
0.4500000000000002 2.0140860271887373
0.4800000000000002 2.1186942573035736
0.5100000000000002 2.2007582487989934
0.5400000000000003 2.264612626367702
0.5700000000000003 2.3161254988057527
0.6000000000000003 2.36207202593
0.6300000000000003 2.409451066071627
0.6600000000000004 2.4648133837280857
0.6900000000000004 2.5336641208050312
0.7200000000000004 2.619991011046788
0.7500000000000004 2.725954927118472
0.7800000000000005 2.851762818914599
0.8100000000000005 2.9957264226689535
0.8400000000000005 3.1544943850104605
0.8700000000000006 3.323431356308038
0.9000000000000006 3.4971057016707237
0.9300000000000006 3.669838406146039
0.9600000000000006 3.8362602787989317
0.9900000000000007 3.9918236788356443
1.0200000000000007 4.133219281768899
1.0500000000000007 4.2586580725860275
1.0800000000000007 4.367993081414273
1.1100000000000008 4.462672738364882
1.1400000000000008 4.545535914574041
1.1700000000000008 4.620475301818733
1.2000000000000008 4.692008632286811
1.2300000000000009 4.764804962323322
1.260000000000001 4.843215352537679
1.290000000000001 4.930854130027891
1.320000000000001 5.030269475844388
1.350000000000001 5.142731644460379
1.380000000000001 5.268154846737721
1.410000000000001 5.405155856617953
1.440000000000001 5.551239609130786
1.470000000000001 5.703090276824945
1.500000000000001 5.8569364246468325
1.5300000000000011 6.008951748797166
1.5600000000000012 6.155649496575861
1.5900000000000012 6.294229639340448
1.6200000000000012 6.422843295861821
1.6500000000000012 6.540748485610484
1.6800000000000013 6.6483437996657315
1.7100000000000013 6.74708049781124
1.7400000000000013 6.839267002469706
1.7700000000000014 6.927791080634562
1.8000000000000014 7.015792859836771
1.8300000000000014 7.106325534050155
1.8600000000000014 7.202040046627496
1.8900000000000015 7.304925686941035
1.9200000000000015 7.41613115087222
1.9500000000000015 7.535881195114659
1.9800000000000015 7.663493607027005
2.0100000000000016 7.7974907576586965
2.0400000000000014 7.935790472011178
2.070000000000001 8.075953166992399
2.100000000000001 8.21545694044282
2.130000000000001 8.35197007780757
2.1600000000000006 8.483591610482485
2.1900000000000004 8.60903495107969
2.22 8.727736825433611
2.25 8.839882755968397
2.28 8.946350099140517
2.3099999999999996 9.048578853079583
2.3399999999999994 9.148388022771716
2.369999999999999 9.247760427609517
2.399999999999999 9.348621021341067
2.429999999999999 9.45263306892966
2.4599999999999986 9.56103317410997
2.4899999999999984 9.674520816482167
2.5199999999999982 9.793211373922396
2.549999999999998 9.916654407294764
2.579999999999998 10.043911971125784
2.6099999999999977 10.173685580553256
2.6399999999999975 10.304475768609773
2.6699999999999973 10.434755358325221
2.699999999999997 10.56313689146591
2.729999999999997 10.688516151012301
2.7599999999999967 10.810177164691344
2.7899999999999965 10.927849030656319
2.8199999999999963 11.041710777562184
2.849999999999996 11.152346482222901
2.879999999999996 11.260658332483379
2.9099999999999957 11.367749599093148
2.9399999999999955 11.474792156598248
2.9699999999999953 11.582894052522953
2.999999999999995 11.692981709852283
3.029999999999995 11.805708870421281
3.0599999999999947 11.921400757504061
3.0899999999999945 12.040037594674466
3.1199999999999943 12.161277075148224
3.149999999999994 12.284511133431366
3.179999999999994 12.408948840047199
3.2099999999999937 12.533714785352943
3.2399999999999936 12.657951145941288
3.2699999999999934 12.780911831545003
3.299999999999993 12.90203860819297
3.329999999999993 13.02101168198306
3.3599999999999928 13.137770528165262
3.3899999999999926 13.252504381416088
3.4199999999999924 13.36561529409307
3.449999999999992 13.477659616720867
3.479999999999992 13.589275854842768
3.509999999999992 13.701107903584246
3.5399999999999916 13.813732614024175
3.5699999999999914 13.92759958353734
3.599999999999991 14.04298916722129
3.629999999999991 14.15999226906421
3.659999999999991 14.278512786436048
3.6899999999999906 14.398290965452532
3.7199999999999904 14.518943668271632
3.7499999999999902 14.640015892962348
3.77999999999999 14.761036962528586
3.80999999999999 14.881574688067534
3.8399999999999896 15.001281471622407
3.8699999999999894 15.119927629092302
3.8999999999999893 15.237418999398443
3.929999999999989 15.353797907738741
3.959999999999989 15.46922853621328
3.9899999999999887 15.58396947874712
4.019999999999989 15.698337540780212
4.049999999999989 15.812667558266897
4.079999999999989 15.927273122544529
4.10999999999999 16.04241263309099
4.13999999999999 16.15826416091242
4.16999999999999 16.27491133507045
4.19999999999999 16.39234103523038
4.229999999999991 16.510452266016628
4.259999999999991 16.62907434899015
4.289999999999991 16.747991645967502
4.319999999999991 16.866971488100063
4.349999999999992 16.98579187160213
4.379999999999992 17.10426577183158
4.409999999999992 17.22225956008495
4.439999999999992 17.339703882160485
4.469999999999993 17.45659635424488
4.499999999999993 17.572996424705828
4.529999999999993 17.68901361996586
4.559999999999993 17.804791056427188
4.589999999999994 17.920486487074236
4.619999999999994 18.03625324587184
4.649999999999994 18.15222326564168
4.679999999999994 18.26849392883744
4.709999999999995 18.385119922782987
4.739999999999995 18.5021106030706
4.769999999999995 18.6194327001106
4.799999999999995 18.737017614020345
4.829999999999996 18.854772082411863
4.859999999999996 18.97259073345515
4.889999999999996 19.090368944997735
4.919999999999996 19.20801453553527
4.949999999999997 19.325457067568944
4.979999999999997 19.442653917859168
5.009999999999997 19.559592706537344
5.039999999999997 19.67629012431879
5.069999999999998 19.792787596901405
5.099999999999998 19.909144538882217
5.129999999999998 20.025430162937813
5.159999999999998 20.141714881445523
5.189999999999999 20.258062299508396
5.219999999999999 20.374522642837526
5.249999999999999 20.49112823438128
5.279999999999999 20.60789135055124
5.31 20.72480449576181
5.34 20.841842863544983
5.37 20.958968529575547
5.4 21.076135764461316
5.430000000000001 21.19329678481712
5.460000000000001 21.310407262959927
5.490000000000001 21.427431001753206
5.520000000000001 21.544343320904403
5.550000000000002 21.661132879787377
5.580000000000002 21.777801857590358
5.610000000000002 21.894364601600696
5.640000000000002 22.01084501672039
5.670000000000003 22.127273086320425
5.700000000000003 22.24368098338637
5.730000000000003 22.36009924042144
5.760000000000003 22.476553404282818
5.790000000000004 22.593061516653453
5.820000000000004 22.70963263979754
5.850000000000004 22.82626651420188
5.880000000000004 22.942954300645006
5.910000000000005 23.059680239653844
5.940000000000005 23.176423970942793
5.970000000000005 23.293163198647903
6.000000000000005 23.40987637383501
6.030000000000006 23.5265450848753
6.060000000000006 23.64315590352488
6.090000000000006 23.759701516334204
6.120000000000006 23.876181066307335
6.150000000000007 23.99259972452076
6.180000000000007 24.108967599112226
6.210000000000007 24.22529815782658
6.240000000000007 24.341606383640233
6.270000000000008 24.45790689799141
6.300000000000008 24.57421227089975
6.330000000000008 24.690531699288393
6.360000000000008 24.80687017971747
6.390000000000009 24.923228234311942
6.420000000000009 25.039602179689528
6.450000000000009 25.15598486428921
6.480000000000009 25.272366753558124
6.51000000000001 25.38873721000308
6.54000000000001 25.505085799520543
6.57000000000001 25.62140347066156
6.60000000000001 25.73768348066062
6.6300000000000106 25.853921977062654
6.660000000000011 25.970118193388284
6.690000000000011 26.08627426758979
6.720000000000011 26.20239473346082
6.7500000000000115 26.318485770406014
6.780000000000012 26.434554320649145
6.810000000000012 26.5506071869612
6.840000000000012 26.666650220801515
6.8700000000000125 26.782687689298573
6.900000000000013 26.89872187997532
6.930000000000013 27.014752973439847
6.960000000000013 27.130779174605156
6.9900000000000135 27.246797064689773
7.020000000000014 27.362802116049217
7.050000000000014 27.478789294749518
7.080000000000014 27.594753674708507
7.1100000000000145 27.710690990145217
7.140000000000015 27.82659806496087
7.170000000000015 27.94247308047472
7.200000000000015 28.058315662406926
7.2300000000000155 28.174126792397928
7.260000000000016 28.28990856868242
7.290000000000016 28.405663856848484
7.320000000000016 28.521395879914927
7.3500000000000165 28.637107800399704
7.380000000000017 28.7528023443359
7.410000000000017 28.868481508073955
7.440000000000017 28.984146375794943
7.4700000000000175 29.099797059710124
7.500000000000018 29.215432759711838
7.530000000000018 29.331051926392355
7.560000000000018 29.44665250005743
7.5900000000000185 29.56223219154367
7.620000000000019 29.67778876877618
7.650000000000019 29.793320314608692
7.680000000000019 29.90882542811606
7.7100000000000195 30.02430335053185
7.74000000000002 30.139754006813302
7.77000000000002 30.25517796465917
7.80000000000002 30.370576322239522
7.8300000000000205 30.48595054373282
7.860000000000021 30.60130226562155
7.890000000000021 30.71663309830326
7.920000000000021 30.83194444697625
7.9500000000000215 30.94723737085365
7.980000000000022 31.06251249466683
8.010000000000021 31.17776997806319
8.04000000000002 31.293009542376165
8.07000000000002 31.40823054788931
8.10000000000002 31.523432107823126
8.130000000000019 31.638613222994774
8.160000000000018 31.753772919832294
8.190000000000017 31.868910375007424
8.220000000000017 31.984025013829495
8.250000000000016 32.0991165726236
8.280000000000015 32.21418511952841
8.310000000000015 32.329231034463284
8.340000000000014 32.44425495366988
8.370000000000013 32.55925768860971
8.400000000000013 32.67424013026852
8.430000000000012 32.78920315193699
8.460000000000012 32.904147521488
8.49000000000001 33.01907383358103
8.52000000000001 33.1339824670055
8.55000000000001 33.24887357027369
8.580000000000009 33.36374707560522
8.610000000000008 33.47860273673784
8.640000000000008 33.593440184771524
8.670000000000007 33.7082589951433
8.700000000000006 33.823058756863276
8.730000000000006 33.93783913591915
8.760000000000005 34.05259992701017
8.790000000000004 34.16734108405127
8.820000000000004 34.28206273082428
8.850000000000003 34.3967651506437
8.880000000000003 34.51144875735266
8.910000000000002 34.62611405207826
8.940000000000001 34.74076157213354
8.97 34.85539183806195
9.0 34.97000530661361
9.03 35.08460233299829
9.059999999999999 35.199183148455226
9.089999999999998 35.31374785454731
9.119999999999997 35.42829643327224
9.149999999999997 35.54282876915034
9.179999999999996 35.6573446801669
9.209999999999996 35.7718439545188
9.239999999999995 35.88632638936997
9.269999999999994 36.00079182510859
9.299999999999994 36.11524016969281
9.329999999999993 36.229671413869625
9.359999999999992 36.344085633775876
9.389999999999992 36.45848298180135
9.419999999999991 36.57286366816221
9.44999999999999 36.687227936748656
9.47999999999999 36.801576038613455
9.50999999999999 36.91590820833891
9.539999999999988 37.030224645252964
9.569999999999988 37.14452550220095
9.599999999999987 37.25881087700806
9.629999999999987 37.373080809642865
9.659999999999986 37.4873352885501
9.689999999999985 37.601574266619195
9.719999999999985 37.71579768239946
9.749999999999984 37.83000548231353
9.779999999999983 37.94419763691717
9.809999999999983 38.058374156456516
9.839999999999982 38.17253510298383
9.869999999999981 38.28668059780908
9.89999999999998 38.400810823474714
9.92999999999998 38.51492601938895
9.95999999999998 38.629026469862346
9.989999999999979 38.74311248644398
10.019999999999978 38.849534455920704
10.049999999999978 38.93597899683647
10.079999999999977 38.99181343997292
10.109999999999976 39.01089968628075
10.139999999999976 38.99267094406891
10.169999999999975 38.942022810549034
10.199999999999974 38.86829254337506
10.229999999999974 38.78359268443437
10.259999999999973 38.70081304246309
10.289999999999973 38.63162859765106
10.319999999999972 38.58482542399293
10.349999999999971 38.56518390100382
10.37999999999997 38.57305356908341
10.40999999999997 38.60463623841053
10.43999999999997 38.65288246086241
10.469999999999969 38.70881738486142
10.499999999999968 38.76305743745216
10.529999999999967 38.80726593307815
10.559999999999967 38.83532430973357
10.589999999999966 38.84405900851047
10.619999999999965 38.83344984341916
10.649999999999965 38.80633642545068
10.679999999999964 38.767718431608614
10.709999999999964 38.7238001354825
10.739999999999963 38.680952997932216
10.769999999999962 38.64476250921603
10.799999999999962 38.619292838614626
10.829999999999961 38.60665394072431
10.85999999999996 38.606901102877146
10.88999999999996 38.618244446459435
10.919999999999959 38.63750337037772
10.949999999999958 38.66071260690246
10.979999999999958 38.68377478129909
11.009999999999957 38.70305910332205
11.039999999999957 38.715864922473045
11.069999999999956 38.720698052620016
11.099999999999955 38.71734179372796
11.129999999999955 38.70673715641268
11.159999999999954 38.69071354406606
11.189999999999953 38.67162789905763
11.219999999999953 38.651975945909456
11.249999999999952 38.63403441967368
11.279999999999951 38.61958028965408
11.30999999999995 38.60971531752431
11.33999999999995 38.60480531528191
11.36999999999995 38.60452609964529
11.399999999999949 38.6079948325674
11.429999999999948 38.61395696531666
11.459999999999948 38.620996064996945
11.489999999999947 38.62773575244339
11.519999999999946 38.63300868790981
11.549999999999946 38.63597573277691
11.579999999999945 38.63618751640997
11.609999999999944 38.63358925628198
11.639999999999944 38.62847674247886
11.669999999999943 38.62141613035566
11.699999999999942 38.61314254561042
11.729999999999942 38.60445250410166
11.759999999999941 38.596103349820304
11.78999999999994 38.588729992694816
11.81999999999994 38.5827857086735
11.84999999999994 38.578510226180605
11.879999999999939 38.57592508406688
11.909999999999938 38.574853560825325
11.939999999999937 38.574960407618576
11.969999999999937 38.57580518108869
11.999999999999936 38.576902268870185
12.029999999999935 38.57778060388788
12.059999999999935 38.57803664174529
12.089999999999934 38.57737530925884
12.119999999999933 38.57563525492584
12.149999999999933 38.57279667252887
12.179999999999932 38.568971998201704
12.209999999999932 38.5643817080932
12.239999999999931 38.55931907304242
12.26999999999993 38.55410877388664
12.29999999999993 38.54906476309825
12.329999999999929 38.54445252943589
12.359999999999928 38.540460094467875
12.389999999999928 38.53718073422803
12.419999999999927 38.53460877497294
12.449999999999926 38.53264808233014
12.479999999999926 38.53113126730131
12.509999999999925 38.5298463719773
12.539999999999925 38.52856708232523
12.569999999999924 38.52708230820976
12.599999999999923 38.525221390320695
12.629999999999923 38.52287203670208
12.659999999999922 38.51998929081147
12.689999999999921 38.51659513879814
12.71999999999992 38.5127696181664
12.74999999999992 38.50863532938338
12.77999999999992 38.50433793068965
12.809999999999919 38.50002547110057
12.839999999999918 38.49582932548418
12.869999999999918 38.49184901427865
12.899999999999917 38.488142480366555
12.929999999999916 38.48472255612289
12.959999999999916 38.48155947973967
12.989999999999915 38.47858857023823
13.019999999999914 38.475721601176055
13.049999999999914 38.472860076609734
13.079999999999913 38.46990855258897
13.109999999999912 38.46678631784123
13.139999999999912 38.46343611873229
13.169999999999911 38.4598291231052
13.19999999999991 38.455965862029515
13.22999999999991 38.45187340882927
13.25999999999991 38.447599497307266
13.289999999999909 38.44320459864748
13.319999999999908 38.438753127442546
13.349999999999907 38.434304949029
13.379999999999907 38.429908219249924
13.409999999999906 38.425594339548454
13.439999999999905 38.42137547121494
13.469999999999905 38.41724470393742
13.499999999999904 38.41317862428499
13.529999999999903 38.409141748193974
13.559999999999903 38.40509208541164
13.589999999999902 38.400987037659576
13.619999999999902 38.39678885689405
13.6499999999999 38.392469019105285
13.6799999999999 38.388011050112404
13.7099999999999 38.383411576920004
13.739999999999899 38.37867962301154
13.769999999999898 38.373834384049104
13.799999999999898 38.368901889966565
13.829999999999897 38.36391107928227
13.859999999999896 38.35888982046839
13.889999999999896 38.35386139234381
13.919999999999895 38.3488418340534
13.949999999999894 38.34383843090861
13.979999999999894 38.338849440317055
14.009999999999893 38.33386500389534
14.039999999999893 38.32886904553815
14.069999999999892 38.3238418188986
14.099999999999891 38.31876273127401
14.12999999999989 38.313613063303706
14.15999999999989 38.30837823294984
14.18999999999989 38.303049345047604
14.219999999999889 38.29762387897451
14.249999999999888 38.292105479057994
14.279999999999887 38.28650294284892
14.309999999999887 38.28082861751188
14.339999999999886 38.275096470941584
14.369999999999886 38.26932010157081
14.399999999999885 38.26351094553802
14.429999999999884 38.2576769021333
14.459999999999884 38.251821517553715
14.489999999999883 38.24594379372927
14.519999999999882 38.2400386080418
14.549999999999882 38.23409764231889
14.579999999999881 38.228110649922776
14.60999999999988 38.22206687432524
14.63999999999988 38.21595643403424
14.66999999999988 38.209771501268776
14.699999999999878 38.203507134421024
14.729999999999878 38.19716167755392
14.759999999999877 38.19073670747021
14.789999999999877 38.18423656693919
14.819999999999876 38.17766757132219
14.849999999999875 38.171037014582325
14.879999999999875 38.16435212139914
14.909999999999874 38.15761908410268
14.939999999999873 38.150842298459025
14.969999999999873 38.1440238800314
14.999999999999872 38.137163513105875
15.029999999999871 38.13025863341602
15.05999999999987 38.12330489030189
15.08999999999987 38.116296816114314
15.11999999999987 38.10922859876436
15.149999999999869 38.10209484709291
15.179999999999868 38.09489124165258
15.209999999999868 38.0876149983174
15.239999999999867 38.08026510467982
15.269999999999866 38.07284231205542
15.299999999999866 38.06534889945583
15.329999999999865 38.057788262723854
15.359999999999864 38.05016439520707
15.389999999999864 38.04248133392959
15.419999999999863 38.034742648350985
15.449999999999863 38.02695102045087
15.479999999999862 38.01910796149986
15.509999999999861 38.0112136932557
15.53999999999986 38.00326720240278
15.56999999999986 37.9952664433945
15.59999999999986 37.98720867041579
15.629999999999859 37.97909085169717
15.659999999999858 37.97091010632231
15.689999999999857 37.96266410720318
15.719999999999857 37.954351394439634
15.749999999999856 37.94597155868705
15.779999999999855 37.93752527298357
15.809999999999855 37.929014168403384
15.839999999999854 37.92044058457571
15.869999999999854 37.91180724276862
15.899999999999853 37.90311690044504
15.929999999999852 37.89437202248571
15.959999999999852 37.88557452384585
15.989999999999851 37.8767256120274
16.01999999999985 37.86782573032451
16.04999999999985 37.85887458930855
16.079999999999853 37.84987127098172
16.109999999999854 37.84081439123077
16.139999999999855 37.83170229950595
16.169999999999856 37.822533292960046
16.199999999999857 37.81330582353095
16.22999999999986 37.80401868046707
16.25999999999986 37.79467111381391
16.28999999999986 37.78526288313048
16.31999999999986 37.77579422399561
16.349999999999863 37.76626574056267
16.379999999999864 37.75667824321315
