# Results for "element" with Id # 2016824 for search config "initial" at position: x0: 26.9263157895; y0: 12.5736842105; z0: 167.6667
# time PRESSURE
0.03 1327.1005440572317
0.06 3795.117610059784
0.09 7127.799869128354
0.12 10984.558511643088
0.15 14992.735219791874
0.18 18781.92921956381
0.21 22016.937851460556
0.24 24426.432797566617
0.27 25825.011888274512
0.30000000000000004 26126.868308687364
0.33000000000000007 25350.039368701837
0.3600000000000001 23611.026596055544
0.3900000000000001 21110.464405878964
0.42000000000000015 18111.36741975339
0.4500000000000002 14912.214594891055
0.4800000000000002 11817.623145053576
0.5100000000000002 9109.55798295364
0.5400000000000003 7021.879740163754
0.5700000000000003 5720.576793619299
0.6000000000000003 5291.326643095262
0.6300000000000003 5735.194373330678
0.6600000000000004 6972.415206274798
0.6900000000000004 8853.44731153811
0.7200000000000004 11175.863947917991
0.7500000000000004 13705.247208929306
0.7800000000000005 16198.032864186149
0.8100000000000005 18424.221106152054
0.8400000000000005 20187.982784011507
0.8700000000000006 21344.430402617625
0.9000000000000006 21811.174329164573
0.9300000000000006 21573.73732245452
0.9600000000000006 20684.45291010411
0.9900000000000007 19255.065455084146
1.0200000000000007 17443.879408202316
1.0500000000000007 15438.842928646267
1.0800000000000007 13438.360480235155
1.1100000000000008 11631.828361455162
1.1400000000000008 10181.852676187014
1.1700000000000008 9209.850469173489
1.2000000000000008 8786.295891945018
1.2300000000000009 8926.330593653129
1.260000000000001 9590.87231852325
1.290000000000001 10692.829409549
1.320000000000001 12107.556951146138
1.350000000000001 13686.365889174709
1.380000000000001 15271.682651367482
1.410000000000001 16712.38134876238
1.440000000000001 17877.85922672611
1.470000000000001 18669.591222529758
1.500000000000001 19029.170640754364
1.5300000000000011 18942.193728448838
1.5600000000000012 18437.762475957155
1.5900000000000012 17583.79932618199
1.6200000000000012 16478.788319114243
1.6500000000000012 15240.88517942281
1.6800000000000013 13995.580033194798
1.7100000000000013 12863.19583620513
1.7400000000000013 11947.46787361225
1.7700000000000014 11326.280904599242
1.8000000000000014 11045.36641347723
1.8300000000000014 11115.426024192499
1.8600000000000014 11512.781073104856
1.8900000000000015 12183.307315988131
1.9200000000000015 13049.107670413356
1.9500000000000015 14017.15333669082
1.9800000000000015 14988.975448400004
2.0100000000000016 15870.436065740774
2.0400000000000014 16580.64115165438
2.070000000000001 17059.175650032605
2.100000000000001 17271.030937409803
2.130000000000001 17208.837951977544
2.1600000000000006 16892.29730254562
2.1900000000000004 16364.976661517841
2.22 15688.904799755694
2.25 14937.596371917654
2.28 14188.274092338117
2.3099999999999996 13514.102733119309
2.3399999999999994 12977.208245261594
2.369999999999999 12623.13671923921
2.399999999999999 12477.227540277278
2.429999999999999 12543.158369797637
2.4599999999999986 12803.689150591254
2.4899999999999984 13223.41644549474
2.5199999999999982 13753.163192093205
2.549999999999998 14335.491494885518
2.579999999999998 14910.74539177693
2.6099999999999977 15423.008965829937
2.6399999999999975 15825.403643515929
2.6699999999999973 16084.239048167528
2.699999999999997 16181.66508433218
2.729999999999997 16116.634566116943
2.7599999999999967 15904.161427423966
2.7899999999999965 15573.026588521863
2.8199999999999963 15162.233682906497
2.849999999999996 14716.627351502502
2.879999999999996 14282.151463896138
2.9099999999999957 13901.238658661052
2.9399999999999955 13608.784909322543
2.9699999999999953 13429.081216711224
2.999999999999995 13373.959234977398
3.029999999999995 13442.273021340181
3.0599999999999947 13620.697263782233
3.0899999999999945 13885.695761890776
3.1199999999999943 14206.401547516769
3.149999999999994 14548.074889275224
3.179999999999994 14875.765297338115
3.2099999999999937 15157.80207816027
3.2399999999999936 15368.774370488181
3.2699999999999934 15491.729434891588
3.299999999999993 15519.409706841445
3.329999999999993 15454.454138681427
3.3599999999999928 15308.598582289833
3.3899999999999926 15101.006249811635
3.4199999999999924 14855.94338837534
3.449999999999992 14600.068846782553
3.479999999999992 14359.631200694945
3.509999999999992 14157.8610979972
3.5399999999999916 14012.810867664874
3.5699999999999914 13935.834502202573
3.599999999999991 13930.825437086325
3.629999999999991 13994.2466170669
3.659999999999991 14115.905825287062
3.6899999999999906 14280.356227315031
3.7199999999999904 14468.746279398596
3.7499999999999902 14660.907266824785
3.77999999999999 14837.455207213243
3.80999999999999 14981.694064220992
3.8399999999999896 15081.13981812723
3.8699999999999894 15128.533111746196
3.8999999999999893 15122.266946008203
3.929999999999989 15066.219750403641
3.959999999999989 14969.043888740594
3.9899999999999887 14843.01358564446
4.019999999999989 14702.574067682912
4.049999999999989 14562.756536196564
4.079999999999989 14437.627198034264
4.10999999999999 14338.925282835595
4.13999999999999 14275.01736215745
4.16999999999999 14250.25505888039
4.19999999999999 14264.77711348443
4.229999999999991 14314.749670471441
4.259999999999991 14392.993739605696
4.289999999999991 14489.913622348453
4.319999999999991 14594.613673972752
4.349999999999992 14696.078148410814
4.379999999999992 14784.291916223608
4.409999999999992 14851.190980631847
4.439999999999992 14891.357064956781
4.469999999999993 14902.401446780814
4.499999999999993 14885.018102817987
4.529999999999993 14842.721127076175
4.559999999999993 14781.312380271173
4.589999999999994 14708.150439785684
4.619999999999994 14631.30772585647
4.649999999999994 14558.708465071912
4.679999999999994 14497.335900078418
4.709999999999995 14452.584840483545
4.739999999999995 14427.816285919745
4.769999999999995 14424.146975134046
4.799999999999995 14440.48053876156
4.829999999999996 14473.761378412768
4.859999999999996 14519.41057922024
4.889999999999996 14571.887981872918
4.919999999999996 14625.315514305648
4.949999999999997 14674.093690919188
4.979999999999997 14713.44916027076
5.009999999999997 14739.862749410011
5.039999999999997 14751.342820265287
5.069999999999998 14747.52545966996
5.099999999999998 14729.602898830983
5.129999999999998 14700.098588065617
5.159999999999998 14662.522227632664
5.189999999999999 14620.94810002502
5.219999999999999 14579.56461115126
5.249999999999999 14542.243056016016
5.279999999999999 14512.167017236949
5.31 14491.556702918122
5.34 14481.509270836545
5.37 14481.963290518788
5.4 14491.78314820805
5.430000000000001 14508.946469251392
5.460000000000001 14530.80767315244
5.490000000000001 14554.406684243884
5.520000000000001 14576.788518388556
5.550000000000002 14595.30001547542
5.580000000000002 14607.83532796718
5.610000000000002 14613.008583418745
5.640000000000002 14610.24185265815
5.670000000000003 14599.76638802963
5.700000000000003 14582.542060043645
5.730000000000003 14560.10939160255
5.760000000000003 14534.393212369738
5.790000000000004 14507.482431248416
5.820000000000004 14481.40875738823
5.850000000000004 14457.946166812948
5.880000000000004 14438.451400090034
5.910000000000005 14423.757705261572
5.940000000000005 14414.128797636013
5.970000000000005 14409.27343625153
6.000000000000005 14408.414289957127
6.030000000000006 14410.40051643821
6.060000000000006 14413.849048310962
6.090000000000006 14417.298747999817
6.120000000000006 14419.361111809421
6.150000000000007 14418.853055316844
6.180000000000007 14414.89979439889
6.210000000000007 14406.999451074651
6.240000000000007 14395.046470564766
6.270000000000008 14379.31432141307
6.300000000000008 14360.401221306634
6.330000000000008 14339.148905760607
6.360000000000008 14316.543804700133
6.390000000000009 14293.611347819951
6.420000000000009 14271.313907996784
6.450000000000009 14250.461909008485
6.480000000000009 14231.646953349378
6.51000000000001 14215.2010180408
6.54000000000001 14201.184076461128
6.57000000000001 14189.398865595485
6.60000000000001 14179.429614634477
6.6300000000000106 14170.699294571888
6.660000000000011 14162.538092412897
6.690000000000011 14154.256722268801
6.720000000000011 14145.215645677876
6.7500000000000115 14134.88500678652
6.780000000000012 14122.8899859591
6.810000000000012 14109.037642483327
6.840000000000012 14093.325409300229
6.8700000000000125 14075.930689304932
6.900000000000013 14057.183653890374
6.930000000000013 14037.527455261272
6.960000000000013 14017.469760584427
6.9900000000000135 13997.53198290639
7.020000000000014 13978.201320383843
7.050000000000014 13959.888412213084
7.080000000000014 13942.895217577943
7.1100000000000145 13927.395005852803
7.140000000000015 13913.425695749846
7.170000000000015 13900.896648567734
7.200000000000015 13889.607164537087
7.2300000000000155 13879.27381201426
7.260000000000016 13869.564715437227
7.290000000000016 13860.13642461558
7.320000000000016 13850.66950505387
7.3500000000000165 13840.899587608561
7.380000000000017 13830.641702848217
7.410000000000017 13819.805582507392
7.440000000000017 13808.401560389673
7.4700000000000175 13796.535502333816
7.500000000000018 13784.395321363849
7.530000000000018 13772.230455012406
7.560000000000018 13760.326258261714
7.5900000000000185 13748.975661011178
7.620000000000019 13738.451368941776
7.650000000000019 13728.981249568742
7.680000000000019 13720.728678878238
7.7100000000000195 13713.77988571672
7.74000000000002 13708.139007766411
7.77000000000002 13703.73201024888
7.80000000000002 13700.417210094303
7.8300000000000205 13698.002054370094
7.860000000000021 13696.264096117391
7.890000000000021 13694.97392931953
7.920000000000021 13693.917678597043
7.9500000000000215 13692.917202615785
7.980000000000022 13691.845808623486
8.010000000000021 13690.638378792595
8.04000000000002 13689.295031998283
8.07000000000002 13687.87817738931
8.10000000000002 13686.503490941866
8.130000000000019 13685.325730692322
8.160000000000018 13684.520459603194
8.190000000000017 13684.26421583077
8.220000000000017 13684.715733832903
8.250000000000016 13686.00006499832
8.280000000000015 13688.196188131169
8.310000000000015 13691.329804582752
8.340000000000014 13695.37150634261
8.370000000000013 13700.240441493468
8.400000000000013 13705.81276842438
8.430000000000012 13711.93436806857
8.460000000000012 13718.436279786813
8.49000000000001 13725.151083327177
8.52000000000001 13731.928226201913
8.55000000000001 13738.647253188328
8.580000000000009 13745.227623364333
8.610000000000008 13751.63329401
8.640000000000008 13757.87220627373
8.670000000000007 13763.991912404486
8.700000000000006 13770.070352443101
8.730000000000006 13776.203895541312
8.760000000000005 13782.493535458081
8.790000000000004 13789.030901904896
8.820000000000004 13795.886154638494
8.850000000000003 13803.099023474284
8.880000000000003 13810.673195985728
8.910000000000002 13818.574547361779
8.940000000000001 13826.733822574639
8.97 13835.052568202147
9.0 13843.41269036425
9.03 13851.687753762462
9.059999999999999 13859.75422919352
9.089999999999998 13867.50221700998
9.119999999999997 13874.844282042912
9.149999999999997 13881.722281239414
9.179999999999996 13888.11121172402
9.209999999999996 13894.018124338341
9.239999999999995 13899.477942958112
9.269999999999994 13904.544947550237
9.299999999999994 13909.284791810098
9.329999999999993 13913.764918911958
9.359999999999992 13918.04467775873
9.389999999999992 13922.167363785062
9.419999999999991 13926.154184804625
9.44999999999999 13930.000622151936
9.47999999999999 13933.67630279378
9.50999999999999 13937.127129255365
9.539999999999988 13940.27983390161
9.569999999999988 13943.049411555854
9.599999999999987 13945.348276332203
9.629999999999987 13947.094385183667
9.659999999999986 13948.216990768906
9.689999999999985 13948.66156498271
9.719999999999985 13948.394285225553
9.749999999999984 13947.404217880885
9.779999999999983 13945.70326626709
9.809999999999983 13943.320997983212
9.839999999999982 13940.29909036568
9.869999999999981 13936.685932640765
9.89999999999998 13932.532499465822
9.92999999999998 13927.888547698743
9.95999999999998 13922.795720346965
9.989999999999979 13917.282856636104
10.019999999999978 12744.035679329558
10.049999999999978 10034.959273217408
10.079999999999977 6211.5155711964
10.109999999999976 1801.0931521080713
10.139999999999976 -2630.860485714591
10.169999999999975 -6551.624169196949
10.199999999999974 -9523.94682177335
10.229999999999974 -11252.86938623834
10.259999999999973 -11612.013333574989
10.289999999999973 -10647.758671099902
10.319999999999972 -8562.456247020447
10.349999999999971 -5679.986741907643
10.37999999999997 -2398.8454571790844
10.40999999999997 860.8797971243375
10.43999999999997 3709.780395023663
10.469999999999969 5834.210961571091
10.499999999999968 7029.026020008485
10.529999999999967 7214.740891086075
10.559999999999967 6438.107214006513
10.589999999999966 4857.327447095549
10.619999999999965 2714.893793947769
10.649999999999965 302.37566264321094
10.679999999999964 -2077.958593472926
10.709999999999964 -4149.821733872302
10.739999999999963 -5693.65555906394
10.769999999999962 -6568.27753815361
10.799999999999962 -6721.598414340368
10.829999999999961 -6190.016110076362
10.85999999999996 -5087.472990299011
10.88999999999996 -3586.243071188431
10.919999999999959 -1892.3555021329842
10.949999999999958 -218.92351736274827
10.979999999999958 1239.3372287595316
11.009999999999957 2327.509778984691
11.039999999999957 2945.58995016139
11.069999999999956 3056.0033048361556
11.099999999999955 2683.208321417801
11.129999999999955 1906.040053158129
11.159999999999954 844.2451844536309
11.189999999999953 -358.72789136831466
11.219999999999953 -1554.3510600357383
11.249999999999952 -2606.7351412088274
11.279999999999951 -3407.4276645206396
11.30999999999995 -3885.7899400777183
11.33999999999995 -4014.1091451406223
11.36999999999995 -3807.2996347681046
11.399999999999949 -3317.6866162491906
11.429999999999948 -2625.891589198769
11.459999999999948 -1829.2135188597563
11.489999999999947 -1029.0644162842727
11.519999999999946 -318.98707439783084
11.549999999999946 225.41394498987316
11.579999999999945 553.6319917725287
11.609999999999944 643.9318668137174
11.639999999999944 503.4217359613946
11.669999999999943 164.81732739956666
11.699999999999942 -319.43733960254093
11.729999999999942 -884.7937346746169
11.759999999999941 -1462.9388665895838
11.78999999999994 -1989.837195857855
11.81999999999994 -2412.5856593267563
11.84999999999994 -2694.4071334374835
11.879999999999939 -2817.38044895192
11.909999999999938 -2782.801337241128
11.939999999999937 -2609.3414627114385
11.969999999999937 -2329.420264932902
11.999999999999936 -1984.3613872226779
12.029999999999935 -1618.9853244131084
12.059999999999935 -1276.303478639428
12.089999999999934 -992.9055461643412
12.119999999999933 -795.4906765323467
12.149999999999933 -698.8252975396396
12.179999999999932 -705.2091382530633
12.209999999999932 -805.3747313093177
12.239999999999931 -980.5735805527088
12.26999999999993 -1205.514471459312
12.29999999999993 -1451.742575851689
12.329999999999929 -1691.0455094407089
12.359999999999928 -1898.506473972606
12.389999999999928 -2054.909662063213
12.419999999999927 -2148.293392404512
12.449999999999926 -2174.570325041116
12.479999999999926 -2137.2365539293105
12.509999999999925 -2046.2920713027224
12.539999999999925 -1916.5618989657892
12.569999999999924 -1765.664809101071
12.599999999999923 -1611.8899172429026
12.629999999999923 -1472.2126005906994
12.659999999999922 -1360.647338373668
12.689999999999921 -1287.073891424454
12.71999999999992 -1256.6097596079535
12.74999999999992 -1269.5354614616224
12.77999999999992 -1321.7289487805701
12.809999999999919 -1405.5026038515416
12.839999999999918 -1510.7362267761223
12.869999999999918 -1626.1329644685522
12.899999999999917 -1740.4670899323714
12.929999999999916 -1843.6972396020385
12.959999999999916 -1927.8829114257464
12.989999999999915 -1987.7904488734816
13.019999999999914 -2021.1670053195685
13.049999999999914 -2028.7070686804304
13.079999999999913 -2013.7273213117737
13.109999999999912 -1981.6216128383003
13.139999999999912 -1939.1799473658514
13.169999999999911 -1893.8102506690157
13.19999999999991 -1852.7452299751344
13.22999999999991 -1822.368918948993
13.25999999999991 -1807.6803438426177
13.289999999999909 -1811.9524844552427
13.319999999999908 -1836.5904970985719
13.349999999999907 -1881.1685097134223
13.379999999999907 -1943.6215612710255
13.409999999999906 -2020.525114183558
13.439999999999905 -2107.449507634142
13.469999999999905 -2199.435304579616
13.499999999999904 -2291.479986048368
13.529999999999903 -2378.955987524111
13.559999999999903 -2457.965377860664
13.589999999999902 -2525.558900627206
13.619999999999902 -2579.9462207600295
13.6499999999999 -2620.5248972999166
13.6799999999999 -2647.8179993772737
13.7099999999999 -2663.3724090844007
13.739999999999899 -2669.5841600807566
13.769999999999898 -2669.435742565755
13.799999999999898 -2666.148092651648
13.829999999999897 -2662.7959355618805
13.859999999999896 -2661.857130608957
13.889999999999896 -2665.0033023528053
13.919999999999895 -2672.9137191008276
13.949999999999894 -2685.1747427079063
13.979999999999894 -2700.4274368245433
14.009999999999893 -2716.5185915392353
14.039999999999893 -2730.7303372293018
14.069999999999892 -2740.0334503589
14.099999999999891 -2741.4677645625043
14.12999999999989 -2732.50716856006
14.15999999999989 -2711.2858331792886
14.18999999999989 -2676.860673553495
14.219999999999889 -2629.2497480355933
14.249999999999888 -2569.3169733790073
14.279999999999887 -2498.6671412728006
14.309999999999887 -2419.4678514072384
14.339999999999886 -2334.276304021866
14.369999999999886 -2245.8283699835865
14.399999999999885 -2156.824472775322
14.429999999999884 -2069.651904858986
14.459999999999884 -1986.0968935192745
14.489999999999883 -1907.1545879508212
14.519999999999882 -1832.969290672602
14.549999999999882 -1762.9013019342106
14.579999999999881 -1695.706202088309
14.60999999999988 -1629.7370454929069
14.63999999999988 -1563.1825482224053
14.66999999999988 -1494.3177011791097
14.699999999999878 -1421.7224326934472
14.729999999999878 -1344.546241737492
14.759999999999877 -1262.6628943397284
14.789999999999877 -1176.7685709871762
14.819999999999876 -1088.3674117608566
14.849999999999875 -999.6438179228579
14.879999999999875 -913.2259996392633
14.909999999999874 -831.901491750217
14.939999999999873 -758.3381499463562
14.969999999999873 -694.8217433275402
14.999999999999872 -643.004208785391
15.029999999999871 -603.8523416691443
15.05999999999987 -577.6064735028257
15.08999999999987 -563.707181171795
15.11999999999987 -560.8169799585557
15.149999999999869 -566.9488839886325
15.179999999999868 -579.6808263978596
15.209999999999868 -596.4585981745133
15.239999999999867 -614.890416551149
15.269999999999866 -632.9730542901889
15.299999999999866 -649.2484735492637
15.329999999999865 -662.935692173075
15.359999999999864 -673.9675846379328
15.389999999999864 -682.9667532637179
15.419999999999863 -691.2279412443014
15.449999999999863 -700.2821957390745
15.479999999999862 -711.7654148474684
15.509999999999861 -727.2013928864037
15.53999999999986 -747.8202657267377
15.56999999999986 -774.3579515032285
15.59999999999986 -806.8687712133886
15.629999999999859 -844.7375395582732
15.659999999999858 -886.7259321113784
15.689999999999857 -931.1379260668407
15.719999999999857 -976.0186158882454
15.749999999999856 -1019.3223447739746
15.779999999999855 -1059.1979813841535
15.809999999999855 -1094.2350094347883
15.839999999999854 -1123.5628640359946
15.869999999999854 -1146.8711479803264
15.899999999999853 -1164.3996240393258
15.929999999999852 -1176.9285668831778
15.959999999999852 -1185.7273582807106
15.989999999999851 -1192.326375021739
16.01999999999985 -1198.199835512898
16.04999999999985 -1204.5009327089172
16.079999999999853 -1211.9821276340895
16.109999999999854 -1220.925425938989
