# Results for "element" with Id # 2035690 for search config "initial" at position: x0: 23.7368421053; y0: 15.7631578947; z0: 167.6667
# time PRESSURE
0.03 1328.8252397279343
0.06 3800.062120025373
0.09 7137.111871992863
0.12 10998.951906914366
0.15 15012.441122270066
0.18 18806.68697539329
0.21 22046.02659646632
0.24 24458.741965131463
0.27 25859.146385393728
0.30000000000000004 26161.280873151285
0.33000000000000007 25383.179333149455
0.3600000000000001 23641.491551313564
0.3900000000000001 21137.139728355745
0.42000000000000015 18133.53816873589
0.4500000000000002 14929.635984535409
0.4800000000000002 11830.539751750191
0.5100000000000002 9118.668138570396
0.5400000000000003 7028.249242063501
0.5700000000000003 5725.513358116358
0.6000000000000003 5296.231761308432
0.6300000000000003 5741.410890642171
0.6600000000000004 6981.087757405741
0.6900000000000004 8865.408737428284
0.7200000000000004 11191.556923909666
0.7500000000000004 13724.68647450176
0.7800000000000005 16220.810796926788
0.8100000000000005 18449.55709221957
0.8400000000000005 20214.813933625897
0.8700000000000006 21371.53691202916
0.9000000000000006 21837.32706984069
0.9300000000000006 21597.849789494227
0.9600000000000006 20705.71566637238
0.9900000000000007 19273.042475304246
1.0200000000000007 17458.550413943805
1.0500000000000007 15450.585737823145
1.0800000000000007 13447.878166325936
1.1100000000000008 11640.035444797555
1.1400000000000008 10189.740276587974
1.1700000000000008 9218.351561537911
1.2000000000000008 8796.169427513074
1.2300000000000009 8938.078212382154
1.260000000000001 9604.695950257094
1.290000000000001 10708.631840983391
1.320000000000001 12124.982441222883
1.350000000000001 13704.872767356837
1.380000000000001 15290.635749180961
1.410000000000001 16731.14942726687
1.440000000000001 17895.902060105473
1.470000000000001 18686.52327360627
1.500000000000001 19044.792912731784
1.5300000000000011 18956.49193813351
1.5600000000000012 18450.875986329855
1.5900000000000012 17595.970528500802
1.6200000000000012 16490.304579754964
1.6500000000000012 15252.02512603705
1.6800000000000013 14006.57328847573
1.7100000000000013 12874.201153918431
1.7400000000000013 11958.57010883287
1.7700000000000014 11337.503326174865
1.8000000000000014 11056.692391692184
1.8300000000000014 11126.823071800514
1.8600000000000014 11524.22103227703
1.8900000000000015 12194.778234556921
1.9200000000000015 13060.615582373135
1.9500000000000015 14028.714859805053
1.9800000000000015 15000.60422898088
2.0100000000000016 15882.127359842314
2.0400000000000014 16592.359045588142
2.070000000000001 17070.84664070882
2.100000000000001 17282.54594735228
2.130000000000001 17220.062980491213
2.1600000000000006 16903.090900217143
2.1900000000000004 16375.210956145998
2.22 15698.486076079302
2.25 14946.481154546225
2.28 14196.477737167488
2.3099999999999996 13521.69889415627
2.3399999999999994 12984.319360830368
2.369999999999999 12629.917188610452
2.399999999999999 12483.842469352214
2.429999999999999 12549.761264844601
2.4599999999999986 12810.401922230289
2.4899999999999984 13230.314471971664
2.5199999999999982 13760.267164739344
2.549999999999998 14342.76679252381
2.579999999999998 14918.108496919067
2.6099999999999977 15430.339620626337
2.6399999999999975 15832.560772874618
2.6699999999999973 16091.078202804409
2.699999999999997 16188.055180822306
2.729999999999997 16122.4719789955
2.7599999999999967 15909.379978879331
2.7899999999999965 15577.602563404474
2.8199999999999963 15166.185694310792
2.849999999999996 14720.011345017601
2.879999999999996 14285.051772469287
2.9099999999999957 13903.756324632006
2.9399999999999955 13611.024744621805
2.9699999999999953 13431.139112672938
2.999999999999995 13375.911116261002
3.029999999999995 13444.166582219654
3.0599999999999947 13622.547257693026
3.0899999999999945 13887.483154980393
3.1199999999999943 14208.076351378637
3.149999999999994 14549.562163347093
3.179999999999994 14876.973396055262
3.2099999999999937 15158.632079142724
3.2399999999999936 15369.129535856486
3.2699999999999934 15491.523650000774
3.299999999999993 15518.57405143731
3.329999999999993 15452.941006986435
3.3599999999999928 15306.383083911507
3.3899999999999926 15098.084937151849
3.4199999999999924 14852.330674061403
3.449999999999992 14595.791596819941
3.479999999999992 14354.722210933036
3.509999999999992 14152.352242231218
3.5399999999999916 14006.726676571712
3.5699999999999914 13929.186873921593
3.599999999999991 13923.60993298139
3.629999999999991 13986.44073621402
3.659999999999991 14107.469306795983
3.6899999999999906 14271.233235115804
3.7199999999999904 14458.869130580497
3.7499999999999902 14650.201265966898
3.77999999999999 14825.843981579574
3.80999999999999 14969.104688184456
3.8399999999999896 15067.507197518296
3.8699999999999894 15113.8032617522
3.8999999999999893 15106.398895657014
3.929999999999989 15049.185924078189
3.959999999999989 14950.828948910626
3.9899999999999887 14823.611949313443
4.019999999999989 14681.98660265344
4.049999999999989 14540.98681824817
4.079999999999989 14414.677746300782
4.10999999999999 14314.794169864825
4.13999999999999 14249.695576821992
4.16999999999999 14223.724819499166
4.19999999999999 14237.011281608056
4.229999999999991 14285.712358175953
4.259999999999991 14362.642074678206
4.289999999999991 14458.199983625302
4.319999999999991 14561.487556605414
4.349999999999992 14661.48790236453
4.379999999999992 14748.187139324738
4.409999999999992 14813.524988528476
4.439999999999992 14852.088764885391
4.469999999999993 14861.49638503245
4.499999999999993 14842.448654911737
4.529999999999993 14798.465923622694
4.559999999999993 14735.355124585614
4.589999999999994 14660.478168735412
4.619999999999994 14581.908570068099
4.649999999999994 14507.569452580896
4.679999999999994 14444.441196781392
4.709999999999995 14397.914577472882
4.739999999999995 14371.346074692428
4.769999999999995 14365.847897273341
4.799999999999995 14380.319203842282
4.829999999999996 14411.69997485286
4.859999999999996 14455.406912056931
4.889999999999996 14505.895685122121
4.919999999999996 14557.28447901363
4.949999999999997 14603.970726440068
4.979999999999997 14641.178977016265
5.009999999999997 14665.389106361941
5.039999999999997 14674.60955042714
5.069999999999998 14668.477158656977
5.099999999999998 14648.185478088239
5.129999999999998 14616.260058961203
5.159999999999998 14576.21358085781
5.189999999999999 14532.124054545118
5.219999999999999 14488.183965818356
5.249999999999999 14448.268614026449
5.279999999999999 14415.565377631328
5.31 14392.298216049545
5.34 14379.56800507759
5.37 14377.317254373604
5.4 14384.414780552292
5.430000000000001 14398.843184372112
5.460000000000001 14417.962326066183
5.490000000000001 14438.817864564637
5.520000000000001 14458.460698408095
5.550000000000002 14474.243629552097
5.580000000000002 14484.066786711279
5.610000000000002 14486.549939370681
5.640000000000002 14481.120204643521
5.670000000000003 14468.013426670002
5.700000000000003 14448.193864382287
5.730000000000003 14423.206510109207
5.760000000000003 14394.98091274857
5.790000000000004 14365.611036477068
5.820000000000004 14337.134108363305
5.850000000000004 14311.32984859091
5.880000000000004 14289.56100364628
5.910000000000005 14272.667218592529
5.940000000000005 14260.919141075794
5.970000000000005 14254.032999225965
6.000000000000005 14251.239357542776
6.030000000000006 14251.3957232096
6.060000000000006 14253.127746319282
6.090000000000006 14254.982996035293
6.120000000000006 14255.58138860633
6.150000000000007 14253.747823445707
6.180000000000007 14248.615013151815
6.210000000000007 14239.688076367276
6.240000000000007 14226.867958123024
6.270000000000008 14210.43408034504
6.300000000000008 14190.989882405926
6.330000000000008 14169.381829131056
6.360000000000008 14146.60083505392
6.390000000000009 14123.67678080436
6.420000000000009 14101.576609947202
6.450000000000009 14081.115574432466
6.480000000000009 14062.890502973461
6.51000000000001 14047.23913188176
6.54000000000001 14034.227876770841
6.57000000000001 14023.666572739672
6.60000000000001 14015.147002825155
6.6300000000000106 14008.099914473127
6.660000000000011 14001.863185607086
6.690000000000011 13995.754847028247
6.720000000000011 13989.141838846153
6.7500000000000115 13981.49958328659
6.780000000000012 13972.456930372013
6.810000000000012 13961.822645111031
6.840000000000012 13949.593670758808
6.8700000000000125 13935.94454419857
6.900000000000013 13921.200112173796
6.930000000000013 13905.795694727816
6.960000000000013 13890.228742599327
6.9900000000000135 13875.008423677202
7.020000000000014 13860.608055180148
7.050000000000014 13847.42311576107
7.080000000000014 13835.739388870888
7.1100000000000145 13825.71319035486
7.140000000000015 13817.364857873741
7.170000000000015 13810.58562173192
7.200000000000015 13805.156213301976
7.2300000000000155 13800.774366088073
7.260000000000016 13797.089248976572
7.290000000000016 13793.738615262575
7.320000000000016 13790.384674835761
7.3500000000000165 13786.745350185869
7.380000000000017 13782.618782755959
7.410000000000017 13777.898763429068
7.440000000000017 13772.580746588541
7.4700000000000175 13766.756791643144
7.500000000000018 13760.602131506796
7.530000000000018 13754.35473024441
7.560000000000018 13748.289678150622
7.5900000000000185 13742.690793169928
7.620000000000019 13737.82277877817
7.650000000000019 13733.906571405965
7.680000000000019 13731.099368669567
7.7100000000000195 13729.481569731353
7.74000000000002 13729.05154503481
7.77000000000002 13729.729388200616
7.80000000000002 13731.367281007844
7.8300000000000205 13733.766165181647
7.860000000000021 13736.696766267789
7.890000000000021 13739.922636097102
7.920000000000021 13743.22272882842
7.9500000000000215 13746.411582717794
7.980000000000022 13749.355093078073
8.010000000000021 13751.980732797118
8.04000000000002 13754.281299884322
8.07000000000002 13756.312011144979
8.10000000000002 13758.181627250124
8.130000000000019 13760.038358813628
8.160000000000018 13762.051470921204
8.190000000000017 13764.39150620293
8.220000000000017 13767.21168049373
8.250000000000016 13770.632306006764
8.280000000000015 13774.728755501133
8.310000000000015 13779.524528030992
8.340000000000014 13784.989631596447
8.370000000000013 13791.044376231717
8.400000000000013 13797.567847507158
8.430000000000012 13804.410629219048
8.460000000000012 13811.410137479283
8.49000000000001 13818.406876476016
8.52000000000001 13825.259493027306
8.55000000000001 13831.857874859332
8.580000000000009 13838.132856162
8.610000000000008 13844.060605308547
8.640000000000008 13849.661737232042
8.670000000000007 13854.996598179383
8.700000000000006 13860.155455091488
8.730000000000006 13865.246052669409
8.760000000000005 13870.379697536873
8.790000000000004 13875.657407939249
8.820000000000004 13881.157947802541
8.850000000000003 13886.929067406572
8.880000000000003 13892.982055608427
8.910000000000002 13899.290142573704
8.940000000000001 13905.791412392638
8.97 13912.394769080713
9.0 13918.989608581898
9.03 13925.457207658557
9.059999999999999 13931.681806678385
9.089999999999998 13937.561216805116
9.119999999999997 13943.015847486055
9.149999999999997 13947.995831418304
9.179999999999996 13952.485142361335
9.209999999999996 13956.500191374464
9.239999999999995 13960.085565448035
9.269999999999994 13963.305295201742
9.299999999999994 13966.234562306243
9.329999999999993 13968.950101979763
9.359999999999992 13971.520294713018
9.389999999999992 13973.997139257765
9.419999999999991 13976.41017043474
9.44999999999999 13978.762720532488
9.47999999999999 13981.031629077417
9.50999999999999 13983.169130234539
9.539999999999988 13985.107257086076
9.569999999999988 13986.765272611676
9.599999999999987 13988.0586980239
9.629999999999987 13988.907516875606
9.659999999999986 13989.241979177801
9.689999999999985 13989.007556165165
9.719999999999985 13988.169319858855
9.749999999999984 13986.714043390923
9.779999999999983 13984.650044926999
9.809999999999983 13982.001977142621
9.839999999999982 13978.80565806522
9.869999999999981 13975.103146620399
9.89999999999998 13970.939027796769
9.92999999999998 13966.356939582629
9.95999999999998 13961.392856335155
9.989999999999979 13956.0702620971
10.019999999999978 12780.743119840974
10.049999999999978 10066.76108969508
10.079999999999977 6236.840149321895
10.109999999999976 1819.9228488250917
10.139999999999976 -2617.095079164832
10.169999999999975 -6540.559356323147
10.199999999999974 -9513.028336028594
10.229999999999974 -11240.037987126801
10.259999999999973 -11596.085338583942
10.289999999999973 -10628.409107893774
10.319999999999972 -8539.90085193014
10.349999999999971 -5654.575077247973
10.37999999999997 -2370.7767382344846
10.40999999999997 891.607344283101
10.43999999999997 3743.2133879649573
10.469999999999969 5870.206960996482
10.499999999999968 7067.09382362589
10.529999999999967 7254.049458524727
10.559999999999967 6477.663684605745
10.589999999999966 4896.241586247661
10.619999999999965 2752.6161790581336
10.649999999999965 338.82072879997315
10.679999999999964 -2042.4362004591126
10.709999999999964 -4114.567848811945
10.739999999999963 -5657.909035024821
10.769999999999962 -6531.346909840118
10.799999999999962 -6682.979126247572
10.829999999999961 -6149.4380033035795
10.85999999999996 -5044.89471352256
10.88999999999996 -3541.819851630357
10.919999999999959 -1846.4001071877055
10.949999999999958 -171.8665603520524
10.979999999999958 1286.9892178080386
11.009999999999957 2375.2251466905473
11.039999999999957 2992.872242954995
11.069999999999956 3102.454139123201
11.099999999999955 2728.579452598656
11.129999999999955 1950.2621971654658
11.159999999999954 887.4261560401937
11.189999999999953 -316.33432387515023
11.219999999999953 -1512.397767989387
11.249999999999952 -2564.8440064736633
11.279999999999951 -3365.249762262736
11.30999999999995 -3843.0541532679563
11.33999999999995 -3970.6546304606463
11.36999999999995 -3763.09097629403
11.399999999999949 -3272.8133656345035
11.429999999999948 -2580.5549209525807
11.459999999999948 -1783.7033364232248
11.489999999999947 -983.730281590453
11.519999999999946 -274.20628903183956
11.549999999999946 269.2677258180104
11.579999999999945 596.2163104928177
11.609999999999944 684.956618112159
11.639999999999944 542.6622515283973
11.669999999999943 202.11927812968707
11.699999999999942 -284.1605171058843
11.729999999999942 -851.569305924803
11.759999999999941 -1431.747255954184
11.78999999999994 -1960.626637332552
11.81999999999994 -2385.286785385211
11.84999999999994 -2668.9456733594916
11.879999999999939 -2793.686236027032
11.909999999999938 -2760.8121577766287
11.939999999999937 -2589.001389031069
11.969999999999937 -2310.6730311894976
11.999999999999936 -1967.140825292312
12.029999999999935 -1603.2042852717734
12.059999999999935 -1261.8436370252994
12.089999999999934 -979.6101914576357
12.119999999999933 -783.1617110327721
12.149999999999933 -687.224647203859
12.179999999999932 -694.0645038736512
12.209999999999932 -794.3890240912176
12.239999999999931 -969.4372919571873
12.26999999999993 -1193.920058133524
12.29999999999993 -1439.3991842771686
12.329999999999929 -1677.6925886609597
12.359999999999928 -1883.9245924526922
12.389999999999928 -2038.92748187399
12.419999999999927 -2130.79074450972
12.449999999999926 -2155.4772831714536
12.479999999999926 -2116.5289750148813
12.509999999999925 -2023.9828845283823
12.539999999999925 -1892.6883307265578
12.569999999999924 -1740.2728093649635
12.599999999999923 -1585.0178024172571
12.629999999999923 -1443.8765467489452
12.659999999999922 -1330.8309316593777
12.689999999999921 -1255.7232835969016
12.71999999999992 -1223.6347186536468
12.74999999999992 -1234.8157781235043
12.77999999999992 -1285.1276040700786
12.809999999999919 -1366.8824521950537
12.839999999999918 -1469.976694482864
12.869999999999918 -1583.137621360887
12.899999999999917 -1695.1622944330222
12.929999999999916 -1796.0351999941904
12.959999999999916 -1877.8310087243808
12.989999999999915 -1935.304643482046
13.019999999999914 -1966.1642334693324
13.049999999999914 -1971.042997514597
13.079999999999913 -1953.1820727391435
13.109999999999912 -1917.8976088845886
13.139999999999912 -1871.9145716115124
13.169999999999911 -1822.5994196110473
13.19999999999991 -1777.171733612986
13.22999999999991 -1742.03162095694
13.25999999999991 -1722.22378632343
13.289999999999909 -1721.0933624789661
13.319999999999908 -1740.1436440899818
13.349999999999907 -1779.0623755435224
13.379999999999907 -1835.9083733772954
13.409999999999906 -1907.3823774918849
13.439999999999905 -1989.1635352476394
13.469999999999905 -2076.3900418097055
13.499999999999904 -2164.146595524465
13.529999999999903 -2247.869123161137
13.559999999999903 -2323.6897040080676
13.589999999999902 -2388.642204528223
13.619999999999902 -2440.8902998125754
13.6499999999999 -2479.7731188556795
13.6799999999999 -2505.725463450341
13.7099999999999 -2520.1704716729564
13.739999999999899 -2525.327458081839
13.769999999999898 -2523.9337021243737
13.799999999999898 -2518.904715935387
13.829999999999897 -2513.00484984757
13.859999999999896 -2508.460846571491
13.889999999999896 -2506.7733835307135
13.919999999999895 -2508.553117764428
13.949999999999894 -2513.4072649966574
13.979999999999894 -2519.9871118034926
14.009999999999893 -2526.1530351038164
14.039999999999893 -2529.2296119547123
14.069999999999892 -2526.2475429640713
14.099999999999891 -2514.310387908325
14.12999999999989 -2491.0016043410615
14.15999999999989 -2454.654881738667
14.18999999999989 -2404.5859328959627
14.219999999999889 -2341.076248025768
14.249999999999888 -2265.240596939702
14.279999999999887 -2178.9244332046273
14.309999999999887 -2084.536291680274
14.339999999999886 -1984.8756556528792
14.369999999999886 -1882.9182216723025
14.399999999999885 -1781.5966143216028
14.429999999999884 -1683.5209546813628
14.459999999999884 -1590.6970756712246
14.489999999999883 -1504.3624688986347
14.519999999999882 -1424.9540858273094
14.549999999999882 -1352.1917865392422
14.579999999999881 -1285.2889247965609
14.60999999999988 -1223.1286511658077
14.63999999999988 -1164.4315032532252
14.66999999999988 -1107.9089173314087
14.699999999999878 -1052.3529861757063
14.729999999999878 -996.9067273572191
14.759999999999877 -941.0996152723903
14.789999999999877 -884.9362664251815
14.819999999999876 -828.8921289500964
14.849999999999875 -773.9462968150102
14.879999999999875 -721.5301841135548
14.909999999999874 -673.3586908689746
14.939999999999873 -631.2027354730794
14.969999999999873 -596.7172635005418
14.999999999999872 -571.3913014279035
15.029999999999871 -556.2054133047548
15.05999999999987 -551.5434479875366
15.08999999999987 -557.1196939994865
15.11999999999987 -571.9865624534716
15.149999999999869 -594.605190738515
15.179999999999868 -622.9714424168378
15.209999999999868 -654.8599137426122
15.239999999999867 -688.0759371379268
15.269999999999866 -720.6548468232265
15.299999999999866 -751.020054415351
15.329999999999865 -778.1216189136708
15.359999999999864 -801.5023832448551
15.389999999999864 -821.3229818998288
15.419999999999863 -838.3266442636519
15.449999999999863 -853.5725898179612
15.479999999999862 -868.267165746798
15.509999999999861 -883.6021655322855
15.53999999999986 -900.6351657741238
15.56999999999986 -920.1262094401899
15.59999999999986 -942.3475575032257
15.629999999999859 -967.0846056803875
15.659999999999858 -993.647520721384
15.689999999999857 -1020.9842609457552
15.719999999999857 -1047.8177807760271
15.749999999999856 -1072.818381955077
15.779999999999855 -1094.8040116814655
15.809999999999855 -1112.8512110964907
15.839999999999854 -1126.3885195870646
15.869999999999854 -1135.2748398722345
15.899999999999853 -1139.829969499853
15.929999999999852 -1140.8108936580575
15.959999999999852 -1139.3858482382518
15.989999999999851 -1136.9742342251375
16.01999999999985 -1135.0065262129112
16.04999999999985 -1134.7147789167882
16.079999999999853 -1137.067918460378
16.109999999999854 -1142.6557863265384
