# Results for "element" with Id # 113454 for search config "initial" at position: x0: 30.1157894737; y0: 9.38421052632; z0: 167.6667
# time PRESSURE
0.03 1325.5670514329288
0.06 3790.7215308112445
0.09 7119.519148145953
0.12 10971.754074097316
0.15 14975.193497542836
0.18 18759.868834231424
0.21 21990.98049091428
0.24 24397.54032489511
0.27 25794.393958158682
0.30000000000000004 26095.8673210523
0.33000000000000007 25320.002208841604
0.3600000000000001 23583.1747025633
0.3900000000000001 21085.774742385773
0.42000000000000015 18090.47710589191
0.4500000000000002 14895.36035792105
0.4800000000000002 11804.623522400909
0.5100000000000002 9099.841212818706
0.5400000000000003 7014.554191713084
0.5700000000000003 5714.534923393978
0.6000000000000003 5285.369024855606
0.6300000000000003 5728.158738596567
0.6600000000000004 6963.296004187656
0.6900000000000004 8841.494500781182
0.7200000000000004 11160.65284385494
0.7500000000000004 13686.714639629543
0.7800000000000005 16176.477258294297
0.8100000000000005 18400.26608975101
0.8400000000000005 20162.50608964636
0.8700000000000006 21318.46303193729
0.9000000000000006 21785.779326828095
0.9300000000000006 21549.881870514022
0.9600000000000006 20662.891250992478
0.9900000000000007 19236.24962724434
1.0200000000000007 17427.912259433433
1.0500000000000007 15425.480320414521
1.0800000000000007 13427.061119043381
1.1100000000000008 11621.84158437844
1.1400000000000008 10172.328935897838
1.1700000000000008 9199.957188458544
1.2000000000000008 8775.322310706455
1.2300000000000009 8913.768782345258
1.260000000000001 9576.465627192812
1.290000000000001 10676.584824794461
1.320000000000001 12089.721926447352
1.350000000000001 13667.374770108934
1.380000000000001 15252.081607772026
1.410000000000001 16692.743644244183
1.440000000000001 17858.704018188273
1.470000000000001 18651.318201842307
1.500000000000001 19012.01982234098
1.5300000000000011 18926.23454182048
1.5600000000000012 18422.910876388574
1.5900000000000012 17569.85637391286
1.6200000000000012 16465.4905660887
1.6500000000000012 15227.956315569218
1.6800000000000013 13982.774528422136
1.7100000000000013 12850.328264422544
1.7400000000000013 11934.425326862978
1.7700000000000014 11313.019565307291
1.8000000000000014 11031.896107856322
1.8300000000000014 11101.788393907673
1.8600000000000014 11499.02721938428
1.8900000000000015 12169.48008520385
1.9200000000000015 13035.231936915745
1.9500000000000015 14003.235352518366
1.9800000000000015 14975.010176078575
2.0100000000000016 15856.419639967076
2.0400000000000014 16566.58459728198
2.070000000000001 17045.11586062488
2.100000000000001 17257.035769300954
2.130000000000001 17195.003634957116
2.1600000000000006 16878.73822358047
2.1900000000000004 16351.809290588539
2.22 15676.228800283383
2.25 14925.476782141759
2.28 14176.728135260542
2.3099999999999996 13503.094047419436
2.3399999999999994 12966.649814398297
2.369999999999999 12612.902172389837
2.399999999999999 12467.168914858914
2.429999999999999 12533.127379324924
2.4599999999999986 12793.558458185944
2.4899999999999984 13213.097583682294
2.5199999999999982 13742.618559650156
2.549999999999998 14324.738767495528
2.579999999999998 14899.854111220404
2.6099999999999977 15412.090170005911
2.6399999999999975 15814.594427116554
2.6699999999999973 16073.684528222631
2.699999999999997 16171.500424460544
2.729999999999997 16106.969495187814
2.7599999999999967 15895.069109080358
2.7899999999999965 15564.537945807411
2.8199999999999963 15154.33734711143
2.849999999999996 14709.27478829727
2.879999999999996 14275.266079763278
2.9099999999999957 13894.727406641206
2.9399999999999955 13602.55074976716
2.9699999999999953 13423.034898615297
2.999999999999995 13368.02913198209
3.029999999999995 13436.412127712454
3.0599999999999947 13614.88686462745
3.0899999999999945 13879.945715532056
3.1199999999999943 14200.747529652752
3.149999999999994 14542.573117266164
3.179999999999994 14870.485556031603
3.2099999999999937 15152.819891032432
3.2399999999999936 15364.16319557043
3.2699999999999934 15487.553674468913
3.299999999999993 15515.719167116935
3.329999999999993 15451.28040216884
3.3599999999999928 15305.953548426227
3.3899999999999926 15098.882878822318
3.4199999999999924 14854.318426477796
3.449999999999992 14598.907231030294
3.479999999999992 14358.891602783311
3.509999999999992 14157.501970320562
3.5399999999999916 14012.796342113055
3.5699999999999914 13936.139490463982
3.599999999999991 13931.439445305994
3.629999999999991 13995.175863667806
3.659999999999991 14117.173521393564
3.6899999999999906 14282.001074979979
3.7199999999999904 14470.819450909497
3.7499999999999902 14663.46825125809
3.77999999999999 14840.567064441868
3.80999999999999 14985.418725131052
3.8399999999999896 15085.533943361626
3.8699999999999894 15133.644894497773
3.8999999999999893 15128.134137527295
3.929999999999989 15072.869038942297
3.959999999999989 14976.49165767874
3.9899999999999887 14851.267873766918
4.019999999999989 14711.637338996128
4.049999999999989 14572.628881459206
4.079999999999989 14448.309575896412
4.10999999999999 14350.422481107715
4.13999999999999 14287.34030623473
4.16999999999999 14263.422273582928
4.19999999999999 14278.815257120388
4.229999999999991 14329.69316451144
4.259999999999991 14408.883550654804
4.289999999999991 14506.7953256262
4.319999999999991 14612.53499422357
4.349999999999992 14715.086571057884
4.379999999999992 14804.432404441342
4.409999999999992 14872.504064499706
4.439999999999992 14913.877507346535
4.469999999999993 14926.15758657852
4.499999999999993 14910.031841203952
4.529999999999993 14869.008524993567
4.559999999999993 14808.884918508089
4.589999999999994 14737.016773875002
4.619999999999994 14661.475566861405
4.649999999999994 14590.186274487429
4.679999999999994 14530.134413949749
4.709999999999995 14486.718425820038
4.739999999999995 14463.30408478243
4.769999999999995 14461.013578464992
4.799999999999995 14478.75588178978
4.829999999999996 14513.479822790368
4.859999999999996 14560.609624826417
4.889999999999996 14614.6068573788
4.919999999999996 14669.593928293325
4.949999999999997 14719.970980772207
4.979999999999997 14760.964004941634
5.009999999999997 14789.053354775919
5.039999999999997 14802.246907769517
5.069999999999998 14800.180045351352
5.099999999999998 14784.04440042996
5.129999999999998 14756.363214259607
5.159999999999998 14720.647275377174
5.189999999999999 14680.97380050195
5.219999999999999 14641.53604351489
5.249999999999999 14606.211804354709
5.279999999999999 14578.192276004263
5.31 14559.705802917653
5.34 14551.858076141629
5.37 14554.59614406717
5.4 14566.79223643992
5.430000000000001 14586.430833712484
5.460000000000001 14610.871985658487
5.490000000000001 14637.15986127489
5.520000000000001 14662.342221308752
5.550000000000002 14683.767052271092
5.580000000000002 14699.327980397118
5.610000000000002 14707.637274420496
5.640000000000002 14708.114272250019
5.670000000000003 14700.986887852407
5.700000000000003 14687.211280106443
5.730000000000003 14668.324127523192
5.760000000000003 14646.246588477215
5.790000000000004 14623.064373386287
5.820000000000004 14600.806649240996
5.850000000000004 14581.245831313598
5.880000000000004 14565.738033324616
5.910000000000005 14555.116522307013
5.940000000000005 14549.645264387253
5.970000000000005 14549.033086917054
6.000000000000005 14552.502107799839
6.030000000000006 14558.899782659173
6.060000000000006 14566.83979443389
6.090000000000006 14574.856085048372
6.120000000000006 14581.553507498062
6.150000000000007 14585.740598364922
6.180000000000007 14586.532477375495
6.210000000000007 14583.4155253661
6.240000000000007 14576.270889255879
6.270000000000008 14565.35735603291
6.300000000000008 14551.257359355608
6.330000000000008 14534.795711148789
6.360000000000008 14516.940714768949
6.390000000000009 14498.69845248662
6.420000000000009 14481.010829987605
6.450000000000009 14464.666853926854
6.480000000000009 14450.236003817945
6.51000000000001 14438.027739410238
6.54000000000001 14428.079434247044
6.57000000000001 14420.171588174351
6.60000000000001 14413.867087743143
6.6300000000000106 14408.568936888681
6.660000000000011 14403.58917127339
6.690000000000011 14398.222442718812
6.720000000000011 14391.815504211756
6.7500000000000115 14383.82721446222
6.780000000000012 14373.873884349148
6.810000000000012 14361.755999181632
6.840000000000012 14347.466436988807
6.8700000000000125 14331.179761718002
6.900000000000013 14313.224695862224
6.930000000000013 14294.044096049523
6.960000000000013 14274.146246898646
6.9900000000000135 14254.05375486903
7.020000000000014 14234.255320758486
7.050000000000014 14215.16325418124
7.080000000000014 14197.081328067978
7.1100000000000145 14180.184770888152
7.140000000000015 14164.513675897799
7.170000000000015 14149.979876973943
7.200000000000015 14136.385441739516
7.2300000000000155 14123.449898879127
7.260000000000016 14110.844412059174
7.290000000000016 14098.228423118435
7.320000000000016 14085.285049950291
7.3500000000000165 14071.752073754691
7.380000000000017 14057.446305351205
7.410000000000017 14042.279039372836
7.440000000000017 14026.262155128608
7.4700000000000175 14009.503370459599
7.500000000000018 13992.19301568548
7.530000000000018 13974.583697505452
7.560000000000018 13956.964905228642
7.5900000000000185 13939.634881080137
7.620000000000019 13922.872964953312
7.650000000000019 13906.91506119846
7.680000000000019 13891.934272650617
7.7100000000000195 13878.02853687149
7.74000000000002 13865.215789285867
7.77000000000002 13853.437808089298
7.80000000000002 13842.570663498485
7.8300000000000205 13832.441392225079
7.860000000000021 13822.84875908809
7.890000000000021 13813.585951747074
7.920000000000021 13804.462891659457
7.9500000000000215 13795.32639923346
7.980000000000022 13786.075796119436
8.010000000000021 13776.672870597395
8.04000000000002 13767.145355249879
8.07000000000002 13757.58376607297
8.10000000000002 13748.132000751724
8.130000000000019 13738.972763891761
8.160000000000018 13730.309094835886
8.190000000000017 13722.344158703741
8.220000000000017 13715.261977125763
8.250000000000016 13709.210977643255
8.280000000000015 13704.29102539935
8.310000000000015 13700.545811677466
8.340000000000014 13697.960772406106
8.370000000000013 13696.466689749419
8.400000000000013 13695.94827408821
8.430000000000012 13696.257080204086
8.460000000000012 13697.227300284232
8.49000000000001 13698.692552526965
8.52000000000001 13700.501765184988
8.55000000000001 13702.532843200017
8.580000000000009 13704.702890021825
8.610000000000008 13706.973224486748
8.640000000000008 13709.34926534412
8.670000000000007 13711.876323955334
8.700000000000006 13714.630588280732
8.730000000000006 13717.70726880659
8.760000000000005 13721.206766369607
8.790000000000004 13725.220507666081
8.820000000000004 13729.818569274343
8.850000000000003 13735.040219202117
8.880000000000003 13740.887770626114
8.910000000000002 13747.324289897642
8.940000000000001 13754.275793740468
8.97 13761.637022566709
9.0 13769.280922278434
9.03 13777.069985110305
9.059999999999999 13784.867842673964
9.089999999999998 13792.550391944507
9.119999999999997 13800.014915367365
9.149999999999997 13807.187131801691
9.179999999999996 13814.025299438694
9.209999999999996 13820.519876907558
9.239999999999995 13826.689867255978
9.269999999999994 13832.57491239016
9.299999999999994 13838.227731714107
9.329999999999993 13843.704599133564
9.359999999999992 13849.055517312836
9.389999999999992 13854.316138780767
9.419999999999991 13859.501492177676
9.44999999999999 13864.60205427111
9.47999999999999 13869.583309674093
9.50999999999999 13874.387550098045
9.539999999999988 13878.937996057004
9.569999999999988 13883.145674240135
9.599999999999987 13886.918111508494
9.629999999999987 13890.167008935106
9.659999999999986 13892.813759232024
9.689999999999985 13894.794286582099
9.719999999999985 13896.063758315806
9.749999999999984 13896.599149558911
9.779999999999983 13896.39975600474
9.809999999999983 13895.482687493954
9.839999999999982 13893.87769627004
9.869999999999981 13891.622151442272
9.89999999999998 13888.757250546918
9.92999999999998 13885.324278259384
9.95999999999998 13881.357690809029
9.989999999999979 13876.880666403214
10.019999999999978 12707.013310462615
10.049999999999978 10004.016573928124
10.079999999999977 6187.834108420613
10.109999999999976 1784.3000183007061
10.139999999999976 -2642.2911993380944
10.169999999999975 -6559.701501336766
10.199999999999974 -9530.504497662676
10.229999999999974 -11259.168354610229
10.259999999999973 -11618.703537357607
10.289999999999973 -10655.118172140079
10.319999999999972 -8570.709420622097
10.349999999999971 -5689.505943829383
10.37999999999997 -2410.139990674553
10.40999999999997 847.3537072167916
10.43999999999997 3693.861141656766
10.469999999999969 5816.182300900087
10.499999999999968 7009.593676827918
10.529999999999967 7194.845861414869
10.559999999999967 6418.660627434043
10.589999999999966 4838.976629072712
10.619999999999965 2697.898598921135
10.649999999999965 286.6166838384096
10.679999999999964 -2092.873186127687
10.709999999999964 -4164.4123390696295
10.739999999999963 -5708.44586030962
10.769999999999962 -6583.715484241802
10.799999999999962 -6738.020587145136
10.829999999999961 -6207.634961393151
10.85999999999996 -5106.365984095258
10.88999999999996 -3606.3354098633345
10.919999999999959 -1913.4038566380443
10.949999999999958 -240.5171470893677
10.979999999999958 1217.7480247865824
11.009999999999957 2306.555869904349
11.039999999999957 2925.907750588026
11.069999999999956 3038.159494982835
11.099999999999955 2667.6432569112635
11.129999999999955 1893.0401444237
11.159999999999954 833.9456447023385
11.189999999999953 -366.31754637487813
11.219999999999953 -1559.3083215673707
11.249999999999952 -2609.181608563589
11.279999999999951 -3407.488434134397
11.30999999999995 -3883.5591769557504
11.33999999999995 -4009.6231521434747
11.36999999999995 -3800.5185827771074
11.399999999999949 -3308.486049092346
11.429999999999948 -2614.065122371191
11.459999999999948 -1814.4873091341449
11.489999999999947 -1011.1225339865005
11.519999999999946 -297.50497013694985
11.549999999999946 250.7323065230131
11.579999999999945 583.0188341942285
11.609999999999944 677.5272368199322
11.639999999999944 541.2561078675672
11.669999999999943 206.80703608028855
11.699999999999942 -273.48172891583147
11.729999999999942 -835.1478874548612
11.759999999999941 -1409.9370070462246
11.78999999999994 -1933.8399053120202
11.81999999999994 -2353.9477983541933
11.84999999999994 -2633.449851893541
11.879999999999939 -2754.3708438019926
11.909999999999938 -2717.942261876375
11.939999999999937 -2542.7717891577995
11.969999999999937 -2261.2242429036974
11.999999999999936 -1914.5837815783975
12.029999999999935 -1547.6499417365308
12.059999999999935 -1203.4315140725423
12.089999999999934 -918.5309044365571
12.119999999999933 -719.6709315688622
12.149999999999933 -621.6480671821167
12.179999999999932 -626.7936930234257
12.209999999999932 -725.8690206037554
12.239999999999931 -900.1471321349011
12.26999999999993 -1124.3478295909485
12.29999999999993 -1370.0149618206476
12.329999999999929 -1608.9222456286034
12.359999999999928 -1816.1286519092375
12.389999999999928 -1972.387768020917
12.419999999999927 -2065.7052972047222
12.449999999999926 -2091.9644029226756
12.479999999999926 -2054.639417833917
12.509999999999925 -1963.7221906657253
12.539999999999925 -1834.0490658164838
12.569999999999924 -1683.2735405647582
12.599999999999923 -1529.7435126950534
12.629999999999923 -1390.5139560934049
12.659999999999922 -1279.6931579168427
12.689999999999921 -1207.2593302367472
12.71999999999992 -1178.4225757260103
12.74999999999992 -1193.539912810981
12.77999999999992 -1248.5380896498211
12.809999999999919 -1335.7415323478235
12.839999999999918 -1444.9987709032428
12.869999999999918 -1564.9397873149476
12.899999999999917 -1684.230474885719
12.929999999999916 -1792.6998818598247
12.959999999999916 -1882.2596677061028
12.989999999999915 -1947.514167703398
13.019999999999914 -1986.0416526791682
13.049999999999914 -1998.367661403121
13.079999999999913 -1987.6506212812749
13.109999999999912 -1959.1521999143154
13.139999999999912 -1919.5734894155437
13.169999999999911 -1876.2992913930743
13.19999999999991 -1836.6287605986222
13.22999999999991 -1807.1156463536954
13.25999999999991 -1793.032741142562
13.289999999999909 -1798.0182939296792
13.319999999999908 -1823.9037589696372
13.349999999999907 -1870.721929760764
13.379999999999907 -1936.863219044803
13.409999999999906 -2019.3246003293298
13.439999999999905 -2114.037373250715
13.469999999999905 -2216.291677919666
13.499999999999904 -2321.1792340252864
13.529999999999903 -2423.9937214731995
13.559999999999903 -2520.5909580047787
13.589999999999902 -2607.641715964227
13.619999999999902 -2682.859261636214
13.6499999999999 -2745.039537143493
13.6799999999999 -2793.978052627661
13.7099999999999 -2830.325151035591
13.739999999999899 -2855.423564988673
13.769999999999898 -2871.1652953208304
13.799999999999898 -2879.8913563916876
13.829999999999897 -2884.112670054784
13.859999999999896 -2886.384710021091
13.889999999999896 -2889.2804613636517
13.919999999999895 -2894.776218433348
13.949999999999894 -2903.6545087288155
13.979999999999894 -2915.482664528528
14.009999999999893 -2928.6730066298846
14.039999999999893 -2940.7469056577274
14.069999999999892 -2948.639879046061
14.099999999999891 -2949.119256254514
14.12999999999989 -2939.228732471974
14.15999999999989 -2916.6736678736834
14.18999999999989 -2880.261216638856
14.219999999999889 -2830.074991973013
14.249999999999888 -2767.371692891851
14.279999999999887 -2694.39559638921
14.309999999999887 -2614.087316073742
14.339999999999886 -2529.7958322387058
14.369999999999886 -2444.9700297238137
14.399999999999885 -2362.8729229486307
14.429999999999884 -2286.242073838585
14.459999999999884 -2216.9592020523596
14.489999999999883 -2155.840902552578
14.519999999999882 -2102.587493742514
14.549999999999882 -2055.8638174371154
14.579999999999881 -2013.4976120336778
14.60999999999988 -1972.7277243892768
14.63999999999988 -1930.5079481813095
14.66999999999988 -1883.8480247831396
14.699999999999878 -1830.1512914745763
14.729999999999878 -1767.575005094237
14.759999999999877 -1695.3097124129768
14.789999999999877 -1613.7513848654758
14.819999999999876 -1524.5324831807666
14.849999999999875 -1430.377319731293
14.879999999999875 -1334.803482059754
14.909999999999874 -1241.7046293775757
14.939999999999873 -1154.874040628949
14.969999999999873 -1077.5502738793957
14.999999999999872 -1012.0378756443882
15.029999999999871 -959.5705867173333
15.05999999999987 -920.3075353011474
15.08999999999987 -893.3922820219004
15.11999999999987 -877.1273339742452
15.149999999999869 -869.2153543563426
15.179999999999868 -867.0324024105324
15.209999999999868 -867.9454776516899
15.239999999999867 -869.5924264216383
15.269999999999866 -870.0925523622852
15.299999999999866 -868.1851428963657
15.329999999999865 -863.344123412289
15.359999999999864 -855.8014510782896
15.389999999999864 -846.5073341196585
15.419999999999863 -837.0294848204389
15.449999999999863 -829.155660574341
15.479999999999862 -824.7034757204101
15.509999999999861 -825.2839390354102
15.53999999999986 -832.1171575023484
15.56999999999986 -845.8698515905493
15.59999999999986 -866.5261322133006
15.629999999999859 -893.3588115761925
15.659999999999858 -924.974727298508
15.689999999999857 -959.4981474567112
15.719999999999857 -994.8089660825303
15.749999999999856 -1028.6973554035899
15.779999999999855 -1059.2180589666452
15.809999999999855 -1085.2432537692641
15.839999999999854 -1106.379839484513
15.869999999999854 -1122.9163307374197
15.899999999999853 -1135.761293627928
15.929999999999852 -1146.3019697237803
15.959999999999852 -1156.2240658559247
15.989999999999851 -1167.1378939918045
16.01999999999985 -1180.164345604931
16.04999999999985 -1195.7226306341806
16.079999999999853 -1213.725287502654
16.109999999999854 -1233.542234985959
