# Results for "element" with Id # 1683004 for search config "initial" at position: x0: 10.9789473684; y0: 28.5210526316; z0: 167.6667
# time PRESSURE
0.03 1337.9645204570709
0.06 3826.261584750886
0.09 7186.453190447076
0.12 11075.217248630634
0.15 15116.843234015796
0.18 18937.802421216053
0.21 22199.939031230122
0.24 24629.397518417645
0.27 26038.912114960367
0.30000000000000004 26341.677215488045
0.33000000000000007 25555.731027343627
0.3600000000000001 23798.61443195099
0.3900000000000001 21272.961677038016
0.42000000000000015 18244.545315257208
0.4500000000000002 15015.04873396493
0.4800000000000002 11892.357778120726
0.5100000000000002 9161.37443095576
0.5400000000000003 7058.218704884607
0.5700000000000003 5750.21636260838
0.6000000000000003 5323.347000425065
0.6300000000000003 5777.960389959488
0.6600000000000004 7032.689123732855
0.6900000000000004 8935.710879819557
0.7200000000000004 11281.902211578772
0.7500000000000004 13834.02312327794
0.7800000000000005 16345.865214768826
0.8100000000000005 18585.25921464833
0.8400000000000005 20354.943220342284
0.8700000000000006 21509.522472592544
0.9000000000000006 21967.098788825602
0.9300000000000006 21714.6143154846
0.9600000000000006 20806.530700785836
0.9900000000000007 19357.09793102422
1.0200000000000007 17527.118917084113
1.0500000000000007 15506.67103498117
1.0800000000000007 13495.643674369292
1.1100000000000008 11684.125567998313
1.1400000000000008 10234.610416461346
1.1700000000000008 9267.704110793053
1.2000000000000008 8852.562723256133
1.2300000000000009 9002.739511865992
1.260000000000001 9677.53872532376
1.290000000000001 10788.448120411493
1.320000000000001 12209.761907070526
1.350000000000001 13792.186333714937
1.380000000000001 15378.017784987325
1.410000000000001 16816.419673691205
1.440000000000001 17977.385051167672
1.470000000000001 18763.14698998066
1.500000000000001 19116.07293941989
1.5300000000000011 19022.42942300121
1.5600000000000012 18511.808886211726
1.5900000000000012 17652.420158131456
1.6200000000000012 16542.850698835482
1.6500000000000012 15301.227864360855
1.6800000000000013 14052.943840530326
1.7100000000000013 12918.209347953467
1.7400000000000013 12000.668926952803
1.7700000000000014 11378.14940294548
1.8000000000000014 11096.347347265078
1.8300000000000014 11165.928969361721
1.8600000000000014 11563.153935925347
1.8900000000000015 12233.790578665707
1.9200000000000015 13099.782405390104
1.9500000000000015 14067.898316207513
1.9800000000000015 15039.446372591701
2.0100000000000016 15920.074628914725
2.0400000000000014 16628.71516262839
2.070000000000001 17104.845374375807
2.100000000000001 17313.431762630593
2.130000000000001 17247.16791625899
2.1600000000000006 16925.89750088281
2.1900000000000004 16393.39508333239
2.22 15711.937281382816
2.25 14955.301110652983
2.28 14200.959895913815
2.3099999999999996 13522.29299312417
2.3399999999999994 12981.584701654268
2.369999999999999 12624.468026350234
2.399999999999999 12476.28904273095
2.429999999999999 12540.649931922595
2.4599999999999986 12800.158978146392
2.4899999999999984 13219.198708194423
2.5199999999999982 13748.33651681014
2.549999999999998 14329.864387047162
2.579999999999998 14903.871410170674
2.6099999999999977 15414.231453144263
2.6399999999999975 15813.925779972094
2.6699999999999973 16069.211472733841
2.699999999999997 16162.280569585962
2.729999999999997 16092.21772067577
2.7599999999999967 15874.241701537398
2.7899999999999965 15537.385040528647
2.8199999999999963 15120.917794614856
2.849999999999996 14669.932231457684
2.879999999999996 14230.570884757317
2.9099999999999957 13845.393266526264
2.9399999999999955 13549.337977002291
2.9699999999999953 13366.65326378241
2.999999999999995 13309.052256322033
3.029999999999995 13375.213134252626
3.0599999999999947 13551.601609576092
3.0899999999999945 13814.46588535061
3.1199999999999943 14132.741969292638
3.149999999999994 14471.533029998669
3.179999999999994 14795.786404932476
3.2099999999999937 15073.791888375305
3.2399999999999936 15280.161895487705
3.2699999999999934 15398.02298071288
3.299999999999993 15420.240612958445
3.329999999999993 15349.604399918699
3.3599999999999928 15198.010546394602
3.3899999999999926 14984.774654592
3.4199999999999924 14734.291912926858
3.449999999999992 14473.31428775342
3.479999999999992 14228.139803684644
3.509999999999992 14022.002290738717
3.5399999999999916 13872.913309595515
3.5699999999999914 13792.148953311074
3.599999999999991 13783.497532909607
3.629999999999991 13843.302554874328
3.659999999999991 13961.251553342325
3.6899999999999906 14121.789831492655
3.7199999999999904 14305.98170509702
3.7499999999999902 14493.606417032837
3.77999999999999 14665.264428345934
3.80999999999999 14804.28058248189
3.8399999999999896 14898.224242970617
3.8699999999999894 14939.9147994077
3.8999999999999893 14927.839879214232
3.929999999999989 14865.977107316416
3.959999999999989 14763.071711223529
3.9899999999999887 14631.475058039836
4.019999999999989 14485.686981888206
4.049999999999989 14340.76636437248
4.079999999999989 14210.778259263756
4.10999999999999 14107.433723413691
4.13999999999999 14039.049397394949
4.16999999999999 14009.912508746092
4.19999999999999 14020.091676406004
4.229999999999991 14065.685981515246
4.259999999999991 14139.460079079996
4.289999999999991 14231.778625523257
4.319999999999991 14331.72743970519
4.349999999999992 14428.294970225039
4.379999999999992 14511.491952740364
4.409999999999992 14573.298239508651
4.439999999999992 14608.351655058625
4.469999999999993 14614.325353209038
4.499999999999993 14591.974379369913
4.529999999999993 14544.866756496107
4.559999999999993 14478.84614006077
4.589999999999994 14401.297431816853
4.619999999999994 14320.302511402868
4.649999999999994 14243.779170535068
4.679999999999994 14178.69106719839
4.709999999999995 14130.404210137378
4.739999999999995 14102.246446189147
4.769999999999995 14095.301712682267
4.799999999999995 14108.444844432675
4.829999999999996 14138.598474261675
4.859999999999996 14181.17131207141
4.889999999999996 14230.621913565483
4.919999999999996 14281.08179567191
4.949999999999997 14326.970715782674
4.979999999999997 14363.54255570284
5.009999999999997 14387.310795023748
5.039999999999997 14396.318272053988
5.069999999999998 14390.233547819123
5.099999999999998 14370.276299119338
5.129999999999998 14338.990230148427
5.159999999999998 14299.897415416028
5.189999999999999 14257.076922856653
5.219999999999999 14214.714188449907
5.249999999999999 14176.671200092758
5.279999999999999 14146.118849351755
5.31 14125.264563289744
5.34 14115.193671542635
5.37 14115.836320359893
5.4 14126.054390077172
5.430000000000001 14143.829603115892
5.460000000000001 14166.52687729407
5.490000000000001 14191.20152205343
5.520000000000001 14214.91750745234
5.550000000000002 14235.043410922153
5.580000000000002 14249.496642720296
5.610000000000002 14256.911868672878
5.640000000000002 14256.724633403857
5.670000000000003 14249.17318826749
5.700000000000003 14235.218888568334
5.730000000000003 14216.399723549912
5.760000000000003 14194.635293325071
5.790000000000004 14172.007736337117
5.820000000000004 14150.542349435473
5.850000000000004 14132.006657171009
5.880000000000004 14117.751739844376
5.910000000000005 14108.606911728246
5.940000000000005 14104.834915358395
5.970000000000005 14106.146379353679
6.000000000000005 14111.767411782255
6.030000000000006 14120.552318236703
6.060000000000006 14131.124510429583
6.090000000000006 14142.028387528524
6.120000000000006 14151.878668403719
6.150000000000007 14159.492873864121
6.180000000000007 14163.994663011279
6.210000000000007 14164.879098639969
6.240000000000007 14162.036438494457
6.270000000000008 14155.734701907753
6.300000000000008 14146.563616689105
6.330000000000008 14135.354687247589
6.360000000000008 14123.082954022888
6.390000000000009 14110.761519581305
6.420000000000009 14099.339366240845
6.450000000000009 14089.61216577491
6.480000000000009 14082.15582483446
6.51000000000001 14077.286527905144
6.54000000000001 14075.049442370884
6.57000000000001 14075.233672652128
6.60000000000001 14077.410528244118
6.6300000000000106 14080.990660370317
6.660000000000011 14085.292352365781
6.690000000000011 14089.614812711981
6.720000000000011 14093.306126232528
6.7500000000000115 14095.823448172036
6.780000000000012 14096.778227708885
6.810000000000012 14095.96277699383
6.840000000000012 14093.358814262578
6.8700000000000125 14089.126806728984
6.900000000000013 14083.578331411189
6.930000000000013 14077.135769638779
6.960000000000013 14070.283899805996
6.9900000000000135 14063.519925816225
7.020000000000014 14057.306447463508
7.050000000000014 14052.03000052473
7.080000000000014 14047.969379828122
7.1100000000000145 14045.275926122607
7.140000000000015 14043.966874164304
7.170000000000015 14043.931682447994
7.200000000000015 14044.950030882539
7.2300000000000155 14046.71880407598
7.260000000000016 14048.885791436238
7.290000000000016 14051.08663940998
7.320000000000016 14052.980638754692
7.3500000000000165 14054.281866277444
7.380000000000017 14054.783709358973
7.410000000000017 14054.374566404225
7.440000000000017 14053.044056778646
7.4700000000000175 14050.878031224876
7.500000000000018 14048.045459777226
7.530000000000018 14044.778489741162
7.560000000000018 14041.347185460854
7.5900000000000185 14038.031324390482
7.620000000000019 14035.092944787077
7.650000000000019 14032.752274731154
7.680000000000019 14031.167647813349
7.7100000000000195 14030.422196156753
7.74000000000002 14030.518601436885
7.77000000000002 14031.382797515495
7.80000000000002 14032.874055960285
7.8300000000000205 14034.801295086709
7.860000000000021 14036.943981779626
7.890000000000021 14039.075017224834
7.920000000000021 14040.98306849676
7.9500000000000215 14042.492323799055
7.980000000000022 14043.47797371451
8.010000000000021 14043.8764927659
8.04000000000002 14043.68954191254
8.07000000000002 14042.981085812655
8.10000000000002 14041.869033533618
8.130000000000019 14040.511683544888
8.160000000000018 14039.089332355852
8.190000000000017 14037.784413426009
8.220000000000017 14036.762655587681
8.250000000000016 14036.157376482155
8.280000000000015 14036.057220616329
8.310000000000015 14036.498779292586
8.340000000000014 14037.464694251139
8.370000000000013 14038.887280378085
8.400000000000013 14040.6567990695
8.430000000000012 14042.634428731903
8.460000000000012 14044.667838804271
8.49000000000001 14046.607851913841
8.52000000000001 14048.322942280336
8.55000000000001 14049.713315750323
8.580000000000009 14050.721711137492
8.610000000000008 14051.337815774637
8.640000000000008 14051.596077183845
8.670000000000007 14051.57099424099
8.700000000000006 14051.367308667395
8.730000000000006 14051.107204286556
8.760000000000005 14050.915935820627
8.790000000000004 14050.907594685721
8.820000000000004 14051.172759895919
8.850000000000003 14051.769662978424
8.880000000000003 14052.718693281562
8.910000000000002 14054.000966251253
8.940000000000001 14055.561843251573
8.97 14057.31600851044
9.0 14059.15672002234
9.03 14060.967023786663
9.059999999999999 14062.62984768032
9.089999999999998 14064.03768585427
9.119999999999997 14065.103084021364
9.149999999999997 14065.767300841204
9.179999999999996 14066.005010916011
9.209999999999996 14065.822073667925
9.239999999999995 14065.251845930627
9.269999999999994 14064.348247698275
9.299999999999994 14063.175694952432
9.329999999999993 14061.800335080345
9.359999999999992 14060.280564568413
9.389999999999992 14058.659438394077
9.419999999999991 14056.960217048289
9.44999999999999 14055.183720898534
9.47999999999999 14053.308854038416
9.50999999999999 14051.294153604395
9.539999999999988 14049.082261065405
9.569999999999988 14046.607920453527
9.599999999999987 14043.805266513804
9.629999999999987 14040.616052524987
9.659999999999986 14036.99532425579
9.689999999999985 14032.915951211777
9.719999999999985 14028.37195841335
9.749999999999984 14023.380258431764
9.779999999999983 14017.980559152478
9.809999999999983 14012.228887212896
9.839999999999982 14006.191768219122
9.869999999999981 13999.940779100005
9.89999999999998 13993.546818280434
9.92999999999998 13987.073452931123
9.95999999999998 13980.569725660083
9.989999999999979 13974.066841978907
10.019999999999978 12788.858302459721
10.049999999999978 10053.06720192899
10.079999999999977 6192.883538153281
10.109999999999976 1742.7044749819106
10.139999999999976 -2724.173195539537
10.169999999999975 -6668.325410596641
10.199999999999974 -9648.660687633113
10.229999999999974 -11370.014448162616
10.259999999999973 -11709.018309291037
10.289999999999973 -10716.952320884455
10.319999999999972 -8601.3184934664
10.349999999999971 -5690.093750900241
10.37999999999997 -2384.230885257361
10.40999999999997 895.2160847201261
10.43999999999997 3758.7940061305567
10.469999999999969 5893.116074461042
10.499999999999968 7093.250965756952
10.529999999999967 7279.897778647388
10.559999999999967 6500.224172021339
10.589999999999966 4913.375399277238
10.619999999999965 2763.4299810262964
10.649999999999965 344.01009822738513
10.679999999999964 -2040.4943442305419
10.709999999999964 -4112.07216259213
10.739999999999963 -5650.22052023725
10.769999999999962 -6513.770302584677
10.799999999999962 -6651.549331670032
10.829999999999961 -6101.528459242438
10.85999999999996 -4979.5300679985685
10.88999999999996 -3459.667374271145
10.919999999999959 -1749.4856487525467
10.949999999999958 -63.106813777565904
10.979999999999958 1404.3241753069228
11.009999999999957 2498.027131478336
11.039999999999957 3118.6224514628557
11.069999999999956 3229.52472333721
11.099999999999955 2856.3909561721603
11.129999999999955 2079.2992767283326
11.159999999999954 1019.1244190386565
11.189999999999953 -179.8044156108151
11.219999999999953 -1368.4152101677164
11.249999999999952 -2410.6490551962033
11.279999999999951 -3198.2413612669807
11.30999999999995 -3661.036710206383
11.33999999999995 -3772.010415763886
11.36999999999995 -3546.8634974517527
11.399999999999949 -3038.701895687391
11.429999999999948 -2328.8321765693445
11.459999999999948 -1515.0784139235884
11.489999999999947 -699.1825848627541
11.519999999999946 25.18255198631626
11.549999999999946 582.4589031700011
11.579999999999945 922.3162066189482
11.609999999999944 1023.265411593045
11.639999999999944 892.6653500534395
11.669999999999943 563.4288609052282
11.699999999999942 88.0992064654505
11.729999999999942 -468.7981106820495
11.759999999999941 -1039.0986020131704
11.78999999999994 -1559.0254314338456
11.81999999999994 -1976.013047782964
11.84999999999994 -2253.659351681821
11.879999999999939 -2374.409875901415
11.909999999999938 -2339.873769699895
11.939999999999937 -2168.944751975509
11.969999999999937 -1894.1447077923808
11.999999999999936 -1556.7658610474703
12.029999999999935 -1201.4624768508038
12.059999999999935 -870.9578292638873
12.089999999999934 -601.4559141760387
12.119999999999933 -419.20486896618263
12.149999999999933 -338.4895468273054
12.179999999999932 -361.13294399926707
12.209999999999932 -477.4256017680391
12.239999999999931 -668.2364184106685
12.26999999999993 -907.9670182277489
12.29999999999993 -1167.9362027347343
12.329999999999929 -1419.7830859639978
12.359999999999928 -1638.5103397287714
12.389999999999928 -1804.8743758159712
12.419999999999927 -1906.9224940113634
12.449999999999926 -1940.5972383767648
12.479999999999926 -1909.4312210059256
12.509999999999925 -1823.453369141756
12.539999999999925 -1697.4992436910172
12.569999999999924 -1549.1735511352385
12.599999999999923 -1396.725334436061
12.629999999999923 -1257.069018591654
12.659999999999922 -1144.147545085917
12.689999999999921 -1067.7717840542657
12.71999999999992 -1033.007789224445
12.74999999999992 -1040.1163135809954
12.77999999999992 -1085.0078755695276
12.809999999999919 -1160.0789314154304
12.839999999999918 -1255.3526238838995
12.869999999999918 -1359.7271743791634
12.899999999999917 -1462.2156228218018
12.929999999999916 -1553.0434162656352
12.959999999999916 -1624.5617471375476
12.989999999999915 -1671.8264455956528
13.019999999999914 -1692.871538504924
13.049999999999914 -1688.6488529954809
13.079999999999913 -1662.6740936663055
13.109999999999912 -1620.4664405258065
13.139999999999912 -1568.8388451920127
13.169999999999911 -1515.156561356173
13.19999999999991 -1466.5687189613732
13.22999999999991 -1429.3334565684763
13.25999999999991 -1408.3033628486887
13.289999999999909 -1406.5938135615145
13.319999999999908 -1425.4374060861755
13.349999999999907 -1464.1825002070896
13.379999999999907 -1520.4720189244044
13.409999999999906 -1590.5471241372243
13.439999999999905 -1669.6144694423385
13.469999999999905 -1752.3655601767032
13.499999999999904 -1833.4850500440514
13.529999999999903 -1908.1194745907244
13.559999999999903 -1972.255309237845
13.589999999999902 -2022.9612843976315
13.619999999999902 -2058.6568157872766
13.6499999999999 -2079.138504581677
13.6799999999999 -2085.4556976435506
13.7099999999999 -2079.7486774473136
13.739999999999899 -2064.992088729431
13.769999999999898 -2044.6403135887385
13.799999999999898 -2022.2584823400975
13.829999999999897 -2001.171793792304
13.859999999999896 -1984.118989645987
13.889999999999896 -1973.0024542442247
13.919999999999895 -1968.715934656574
13.949999999999894 -1971.0956545761242
13.979999999999894 -1978.9645483288243
14.009999999999893 -1990.289223418174
14.039999999999893 -2002.474530808728
14.069999999999892 -2012.6395299491546
14.099999999999891 -2017.9275537110236
14.12999999999989 -2015.8426016388037
14.15999999999989 -2004.518822591011
14.18999999999989 -1982.9146451616775
14.219999999999889 -1950.918675845485
14.249999999999888 -1909.3744106441068
14.279999999999887 -1860.0161602003407
14.309999999999887 -1805.299169527862
14.339999999999886 -1748.1790042745638
14.369999999999886 -1691.8043876161337
14.399999999999885 -1639.2144666478985
14.429999999999884 -1593.0765807183589
14.459999999999884 -1555.4123280361068
14.489999999999883 -1527.4200497263616
14.519999999999882 -1509.4185246329423
14.549999999999882 -1500.8987084246933
14.579999999999881 -1500.6555280678244
14.60999999999988 -1506.9896106879876
14.63999999999988 -1517.9285335433017
14.66999999999988 -1531.429875232185
14.699999999999878 -1545.5685671487227
14.729999999999878 -1558.659901871897
14.759999999999877 -1569.3975253463122
14.789999999999877 -1576.949223221432
14.819999999999876 -1580.983862032244
14.849999999999875 -1581.6887444389768
14.879999999999875 -1579.7155586576087
14.909999999999874 -1576.0473181380585
14.939999999999873 -1571.8168233222902
14.969999999999873 -1568.1171598301728
14.999999999999872 -1565.828664452024
15.029999999999871 -1565.4590174222728
15.05999999999987 -1567.0430762786177
15.08999999999987 -1570.1046636876008
15.11999999999987 -1573.714922152396
15.149999999999869 -1576.6066774591886
15.179999999999868 -1577.3367071702426
15.209999999999868 -1574.4907235171959
15.239999999999867 -1566.875460216767
15.269999999999866 -1553.6742324590978
15.299999999999866 -1534.5559964887289
15.329999999999865 -1509.7338887178275
15.359999999999864 -1479.952473979733
15.389999999999864 -1446.4315894996805
15.419999999999863 -1410.7368180433698
15.449999999999863 -1374.5813424620023
15.479999999999862 -1339.6402356237138
15.509999999999861 -1307.4114911902566
15.53999999999986 -1279.105007807108
15.56999999999986 -1255.549512883827
15.59999999999986 -1237.112945716839
15.629999999999859 -1223.729622344702
15.659999999999858 -1214.910047153369
15.689999999999857 -1209.8317067809837
15.719999999999857 -1207.4396042961898
15.749999999999856 -1206.6229770947652
15.779999999999855 -1206.3241482481542
15.809999999999855 -1205.571447619375
15.839999999999854 -1203.5867423057657
15.869999999999854 -1199.8912702597722
15.899999999999853 -1194.3608199476919
15.929999999999852 -1187.1769676209528
15.959999999999852 -1178.8153669054923
15.989999999999851 -1169.9724270030622
16.01999999999985 -1161.438188113299
16.04999999999985 -1153.9659246088236
16.079999999999853 -1148.1956225180224
