# Results for "element" with Id # 1912657 for search config "initial" at position: x0: 15.7631578947; y0: 23.7368421053; z0: 167.6667
# time PRESSURE
0.03 1334.0202652717276
0.06 3814.940476892215
0.09 7165.103875026269
0.12 11042.171364506783
0.15 15071.538226314831
0.18 18880.82026926462
0.21 22132.956711130704
0.24 24555.045371278706
0.27 25960.53996000905
0.30000000000000004 26263.03686319549
0.33000000000000007 25480.59700334479
0.3600000000000001 23730.379587396324
0.3900000000000001 21214.256147387663
0.42000000000000015 18196.932972366223
0.4500000000000002 14978.849841705629
0.4800000000000002 11866.629137133623
0.5100000000000002 9144.05192517652
0.5400000000000003 7046.398754607389
0.5700000000000003 5740.5305883628625
0.6000000000000003 5312.373747594503
0.6300000000000003 5762.619125319831
0.6600000000000004 7010.573889476367
0.6900000000000004 8905.333551759764
0.7200000000000004 11242.827439751429
0.7500000000000004 13786.885492106128
0.7800000000000005 16292.265797591588
0.8100000000000005 18527.547395513568
0.8400000000000005 20295.903042681293
0.8700000000000006 21451.99991893458
0.9000000000000006 21913.622851899072
0.9300000000000006 21667.07226272462
0.9600000000000006 20765.952697742763
0.9900000000000007 19323.58438987639
1.0200000000000007 17499.915277240125
1.0500000000000007 15484.364531409654
1.0800000000000007 13476.43585582224
1.1100000000000008 11666.126481842159
1.1400000000000008 10216.10502007572
1.1700000000000008 9247.354508585739
1.2000000000000008 8829.526024872435
1.2300000000000009 8976.697899549748
1.260000000000001 9648.651242820222
1.290000000000001 10757.244826686006
1.320000000000001 12177.006268768993
1.350000000000001 13758.733496145884
1.380000000000001 15344.692893942156
1.410000000000001 16783.932786047415
1.440000000000001 17946.289002345315
1.470000000000001 18733.834146207653
1.500000000000001 19088.799152024927
1.5300000000000011 18997.349286795805
1.5600000000000012 18489.007780829266
1.5900000000000012 17631.932840792906
1.6200000000000012 16524.66328734641
1.6500000000000012 15285.267048043972
1.6800000000000013 14039.061975089768
1.7100000000000013 12906.175792308672
1.7400000000000013 11990.17617779208
1.7700000000000014 11368.83802144874
1.8000000000000014 11087.847608725788
1.8300000000000014 11157.912201663188
1.8600000000000014 11555.382940114341
1.8900000000000015 12226.158659528423
1.9200000000000015 13092.332724755512
1.9500000000000015 14060.819700484219
1.9800000000000015 15033.046853932452
2.0100000000000016 15914.738555447213
2.0400000000000014 16624.852571338655
2.070000000000001 17102.842923438824
2.100000000000001 17313.613205857917
2.130000000000001 17249.768736885686
2.1600000000000006 16931.05487644542
2.1900000000000004 16401.150786200462
2.22 15722.249088746787
2.25 14968.058026581886
2.28 14215.997315699602
2.3099999999999996 13539.406053791048
2.3399999999999994 13000.539998213748
2.369999999999999 12645.015419395902
2.399999999999999 12498.175509140678
2.429999999999999 12563.636854982824
2.4599999999999986 12824.042554293157
2.4899999999999984 13243.831532584536
2.5199999999999982 13773.646990660793
2.549999999999998 14355.869830879305
2.579999999999998 14930.68136552129
2.6099999999999977 15442.038937153406
2.6399999999999975 15842.986386193017
2.6699999999999973 16099.812467433672
2.699999999999997 16194.704109180602
2.729999999999997 16126.703621072762
2.7599999999999967 15910.955469176839
2.7899999999999965 15576.39601079633
2.8199999999999963 15162.19049612393
2.849999999999996 14713.332002594314
2.879999999999996 14275.882451218435
2.9099999999999957 13892.349066576078
2.9399999999999955 13597.651694613003
2.9699999999999953 13416.053774316468
2.999999999999995 13359.313578443724
3.029999999999995 13426.176925082198
3.0599999999999947 13603.190046950323
3.0899999999999945 13866.684248333313
3.1199999999999943 14185.671531695954
3.149999999999994 14525.315825799193
3.179999999999994 14850.604254375383
3.2099999999999937 15129.842388376126
3.2399999999999936 15337.634173144568
3.2699999999999934 15457.075769375822
3.299999999999993 15480.984762686943
3.329999999999993 15412.091383790024
3.3599999999999928 15262.22781220477
3.3899999999999926 15050.647890807759
3.4199999999999924 14801.69358127869
3.449999999999992 14542.077324660891
3.479999999999992 14298.074775222449
3.509999999999992 14092.91584127792
3.5399999999999916 13944.625902404738
3.5699999999999914 13864.510259547544
3.599999999999991 13856.398139090563
3.629999999999991 13916.680709046745
3.659999999999991 14035.09458428359
3.6899999999999906 14196.130013383785
3.7199999999999904 14380.887208426484
3.7499999999999902 14569.16870483333
3.77999999999999 14741.583595877684
3.80999999999999 14881.450357515983
3.8399999999999896 14976.318297384321
3.8699999999999894 15018.975581028777
3.8999999999999893 15007.87132313568
3.929999999999989 14946.941686492386
3.959999999999989 14844.892011269534
3.9899999999999887 14714.039514957165
4.019999999999989 14568.858746742317
4.049999999999989 14424.394115822386
4.079999999999989 14294.707623673816
4.10999999999999 14191.51796991717
4.13999999999999 14123.158309527229
4.16999999999999 14093.938595517706
4.19999999999999 14103.953048007053
4.229999999999991 14149.325808869822
4.259999999999991 14222.843015807199
4.289999999999991 14314.884685778172
4.319999999999991 14414.544159709378
4.349999999999992 14510.809045443224
4.379999999999992 14593.681724908054
4.409999999999992 14655.12735682883
4.439999999999992 14689.764530715003
4.469999999999993 14695.244730945698
4.499999999999993 14672.300987379807
4.529999999999993 14624.480999114494
4.559999999999993 14557.611579443479
4.589999999999994 14479.065521013325
4.619999999999994 14396.917808052141
4.649999999999994 14319.08453835673
4.679999999999994 14252.532321305549
4.709999999999995 14202.633708744575
4.739999999999995 14172.725257875645
4.769999999999995 14163.900289501968
4.799999999999995 14175.042190066397
4.829999999999996 14203.080161610904
4.859999999999996 14243.426679021539
4.889999999999996 14290.540767200026
4.919999999999996 14338.55122468761
4.949999999999997 14381.872298727912
4.979999999999997 14415.750166022666
5.009999999999997 14436.68938816704
5.039999999999997 14442.72407621058
5.069999999999998 14433.515652269289
5.099999999999998 14410.27951576133
5.129999999999998 14375.559098201473
5.159999999999998 14332.880694795012
5.189999999999999 14286.332074467817
5.219999999999999 14240.111882641926
5.249999999999999 14198.098972176442
5.279999999999999 14163.483372995543
5.31 14138.492515330005
5.34 14124.232036114134
5.37 14120.651521625909
5.4 14126.630199083107
5.430000000000001 14140.164585827035
5.460000000000001 14158.631721333666
5.490000000000001 14179.096820099658
5.520000000000001 14198.631817405767
5.550000000000002 14214.611325532509
5.580000000000002 14224.957148178048
5.610000000000002 14228.308762097753
5.640000000000002 14224.109368907812
5.670000000000003 14212.607378576971
5.700000000000003 14194.776485924569
5.730000000000003 14172.168655579811
5.760000000000003 14146.71843399473
5.790000000000004 14120.523218444918
5.820000000000004 14095.622831402252
5.850000000000004 14073.798249166222
5.880000000000004 14056.41247142603
5.910000000000005 14044.304886754573
5.940000000000005 14037.746087648398
5.970000000000005 14036.452577142878
6.000000000000005 14039.655043147122
6.030000000000006 14046.211183239764
6.060000000000006 14054.746864441091
6.090000000000006 14063.808767095737
6.120000000000006 14072.014162331658
6.150000000000007 14078.183386089
6.180000000000007 14081.442795034342
6.210000000000007 14081.28948674818
6.240000000000007 14077.61467386682
6.270000000000008 14070.686114094544
6.300000000000008 14061.092671267406
6.330000000000008 14049.663830971887
6.360000000000008 14037.371316551944
6.390000000000009 14025.22357985227
6.420000000000009 14014.16381781268
6.450000000000009 14004.981135214835
6.480000000000009 13998.244113752316
6.51000000000001 13994.260741566468
6.54000000000001 13993.066968494775
6.57000000000001 13994.441805338078
6.60000000000001 13997.945795384387
6.6300000000000106 14002.978092207675
6.660000000000011 14008.844771192968
6.690000000000011 14014.83219191284
6.720000000000011 14020.275601186919
6.7500000000000115 14024.619116495593
6.780000000000012 14027.460883136404
6.810000000000012 14028.57977392533
6.840000000000012 14027.944004879624
6.8700000000000125 14025.700737128558
6.900000000000013 14022.148854590458
6.930000000000013 14017.699003789505
6.960000000000013 14012.825288946711
6.9900000000000135 14008.01519176343
7.020000000000014 14003.722293641955
7.050000000000014 14000.32445425506
7.080000000000014 13998.091834323168
7.1100000000000145 13997.16693420933
7.140000000000015 13997.557786985642
7.170000000000015 13999.144355923203
7.200000000000015 14001.696750478333
7.2300000000000155 14004.902495283626
7.260000000000016 14008.400634996895
7.290000000000016 14011.818958265827
7.320000000000016 14014.810018234048
7.3500000000000165 14017.082482019237
7.380000000000017 14018.42577728974
7.410000000000017 14018.725733576466
7.440000000000017 14017.970739140368
7.4700000000000175 14016.246677082212
7.500000000000018 14013.723629918237
7.530000000000018 14010.6357071313
7.560000000000018 14007.255639718145
7.5900000000000185 14003.866547230322
7.620000000000019 14000.734450186239
7.650000000000019 13998.084123505385
7.680000000000019 13996.07906901136
7.7100000000000195 13994.808199840942
7.74000000000002 13994.280505491739
7.77000000000002 13994.42874539131
7.80000000000002 13995.119596442317
7.8300000000000205 13996.170047668764
7.860000000000021 13997.368329837358
7.890000000000021 13998.496844012814
7.920000000000021 13999.354510932482
7.9500000000000215 13999.776508058205
7.980000000000022 13999.649666334819
8.010000000000021 13998.92244001774
8.04000000000002 13997.608434154628
8.07000000000002 13995.783220587153
8.10000000000002 13993.575585677301
8.130000000000019 13991.153618405559
8.160000000000018 13988.706089822546
8.190000000000017 13986.42241301842
8.220000000000017 13984.473683809169
8.250000000000016 13982.996893562155
8.280000000000015 13982.082759349993
8.310000000000015 13981.768615060646
8.340000000000014 13982.036751807686
8.370000000000013 13982.818255739268
8.400000000000013 13984.00152155223
8.430000000000012 13985.445248262808
8.460000000000012 13986.99400209419
8.49000000000001 13988.494837363014
8.52000000000001 13989.812507203498
8.55000000000001 13990.843392821349
8.580000000000009 13991.52599588334
8.610000000000008 13991.84548458884
8.640000000000008 13991.83221232852
8.670000000000007 13991.557107727316
8.700000000000006 13991.121764426087
8.730000000000006 13990.645468833405
8.760000000000005 13990.250584019108
8.790000000000004 13990.048077846332
8.820000000000004 13990.125130952085
8.850000000000003 13990.536351755423
8.880000000000003 13991.298406580048
8.910000000000002 13992.388607883971
8.940000000000001 13993.748226115822
8.97 13995.288214407408
9.0 13996.89896424924
9.03 13998.46179660522
9.059999999999999 13999.859432321495
9.089999999999998 14000.985985137879
9.119999999999997 14001.756828061898
9.149999999999997 14002.116868024837
9.179999999999996 14002.045601035985
9.209999999999996 14001.55551917353
9.239999999999995 14000.688647590452
9.269999999999994 13999.508409666047
9.299999999999994 13998.090525765323
9.329999999999993 13996.51388780125
9.359999999999992 13994.851172935309
9.389999999999992 13993.161150695774
9.419999999999991 13991.483144317739
9.44999999999999 13989.833454864296
9.47999999999999 13988.204849391554
9.50999999999999 13986.567837710922
9.539999999999988 13984.874832629743
9.569999999999988 13983.0676918917
9.599999999999987 13981.085736826524
9.629999999999987 13978.873729854939
9.659999999999986 13976.387277097376
9.689999999999985 13973.597226139354
9.719999999999985 13970.493345146331
9.749999999999984 13967.086208676032
9.779999999999983 13963.407488748519
9.809999999999983 13959.504538854155
9.839999999999982 13955.43463874395
9.869999999999981 13951.259228474331
9.89999999999998 13947.03806661057
9.92999999999998 13942.822556364614
9.95999999999998 13938.648444204264
9.989999999999979 13934.532863523076
10.019999999999978 12755.485358103988
10.049999999999978 10030.94421647787
10.079999999999977 6185.726427090687
10.109999999999976 1752.0929313621484
10.139999999999976 -2699.1878163151596
10.169999999999975 -6631.031030717325
10.199999999999974 -9603.952823666592
10.229999999999974 -11323.351275935802
10.259999999999973 -11665.35963680956
10.289999999999973 -10679.930158433515
10.319999999999972 -8572.798725099665
10.349999999999971 -5670.154553300075
10.37999999999997 -2371.4704353222296
10.40999999999997 903.190332860604
10.43999999999997 3764.8278423501333
10.469999999999969 5900.047523438515
10.499999999999968 7103.582508225224
10.529999999999967 7295.599114898372
10.559999999999967 6522.631180503455
10.589999999999966 4943.12772110432
10.619999999999965 2800.424696662958
10.649999999999965 387.40179262006313
10.679999999999964 -1992.2287268744883
10.709999999999964 -4060.988111840258
10.739999999999963 -5598.674938924129
10.769999999999962 -6464.127138835151
10.799999999999962 -6605.866325374475
10.829999999999961 -6061.283142813948
10.85999999999996 -4945.442155971045
10.88999999999996 -3431.6515990054895
10.919999999999959 -1726.7424664431123
10.949999999999958 -44.32885668961787
10.979999999999958 1420.6789038193808
11.009999999999957 2513.450471054046
11.039999999999957 3134.310160669509
11.069999999999956 3246.205465202048
11.099999999999955 2874.2476058517154
11.129999999999955 2097.9798536805915
11.159999999999954 1037.8271102639073
11.189999999999953 -162.19678748780535
11.219999999999953 -1353.1784882593147
11.249999999999952 -2399.064084650329
11.279999999999951 -3191.463466371732
11.30999999999995 -3660.001066651472
11.33999999999995 -3777.378415662764
11.36999999999995 -3559.011512638949
11.399999999999949 -3057.7486459056718
11.429999999999948 -2354.696891160238
11.459999999999948 -1547.5587024239514
11.489999999999947 -738.0403204378183
11.519999999999946 -19.8604314340857
11.549999999999946 531.3109438356325
11.579999999999945 864.9903183709156
11.609999999999944 959.5239263505837
11.639999999999944 822.1258999440485
11.669999999999943 485.61250638766273
11.699999999999942 2.50013712888941
11.729999999999942 -562.6308823148734
11.759999999999941 -1141.4782438543402
11.78999999999994 -1670.0530582452816
11.81999999999994 -2095.5208960587493
11.84999999999994 -2381.1771225391944
11.879999999999939 -2509.156707192034
11.909999999999938 -2480.7750405410493
11.939999999999937 -2314.6701132081134
11.969999999999937 -2043.1625990745738
11.999999999999936 -1707.4090220721564
12.029999999999935 -1351.997804584434
12.059999999999935 -1019.6547123897867
12.089999999999934 -746.6486083007835
12.119999999999933 -559.3453876686274
12.149999999999933 -472.1893576385369
12.179999999999932 -487.19240852761766
12.209999999999932 -594.8526820002273
12.239999999999931 -776.2558326882197
12.26999999999993 -1006.0225845203719
12.29999999999993 -1255.6892738961476
12.329999999999929 -1497.108877540924
12.359999999999928 -1705.4931186077351
12.389999999999928 -1861.802475064788
12.419999999999927 -1954.2828704649064
12.449999999999926 -1979.0689547933353
12.479999999999926 -1939.8770348724925
12.509999999999925 -1846.908208336228
12.539999999999925 -1715.1536826903753
12.569999999999924 -1562.3513516426947
12.599999999999923 -1406.855312352659
12.629999999999923 -1265.6517918572572
12.659999999999922 -1152.7183016204099
12.689999999999921 -1077.860766196274
12.71999999999992 -1046.0996556683585
12.74999999999992 -1057.609249960297
12.77999999999992 -1108.1716314631694
12.809999999999919 -1190.0199425806647
12.839999999999918 -1292.983000470221
12.869999999999918 -1405.742386273824
12.899999999999917 -1517.078247470206
12.929999999999916 -1616.9718399782596
12.959999999999916 -1697.521095123052
12.989999999999915 -1753.5307337111817
13.019999999999914 -1782.782994799193
13.049999999999914 -1785.9966855315647
13.079999999999913 -1766.496923854144
13.109999999999912 -1729.676891016859
13.139999999999912 -1682.3231990703941
13.169999999999911 -1631.8567949998392
13.19999999999991 -1585.5457347735905
13.22999999999991 -1549.8225609451372
13.25999999999991 -1529.7514096340178
13.289999999999909 -1528.6832500039432
13.319999999999908 -1548.1079048564825
13.349999999999907 -1587.6585063570005
13.379999999999907 -1645.2883015446318
13.409999999999906 -1717.5452558054908
13.439999999999905 -1799.8956465684403
13.469999999999905 -1887.2102740685066
13.499999999999904 -1974.2614923359747
13.529999999999903 -2056.179385524498
13.559999999999903 -2128.8374205745945
13.589999999999902 -2189.0816534465966
13.619999999999902 -2235.0096539100127
13.6499999999999 -2266.012589556607
13.6799999999999 -2282.6908024336135
13.7099999999999 -2286.7387257989267
13.739999999999899 -2280.7148710120446
13.769999999999898 -2267.718437716943
13.799999999999898 -2251.0348289584786
13.829999999999897 -2233.809968736312
13.859999999999896 -2218.703756070175
13.889999999999896 -2207.63921319249
13.919999999999895 -2201.5986730140366
13.949999999999894 -2200.5294287551314
13.979999999999894 -2203.3400179603827
14.009999999999893 -2208.0465395790043
14.039999999999893 -2212.067558562051
14.069999999999892 -2212.501545247891
14.099999999999891 -2206.4635336891333
14.12999999999989 -2191.461812888634
14.15999999999989 -2165.689202775085
14.18999999999989 -2128.247655163952
14.219999999999889 -2079.2447312502914
14.249999999999888 -2019.7934186414227
14.279999999999887 -1951.9301745641444
14.309999999999887 -1878.4188684914436
14.339999999999886 -1802.50279234278
14.369999999999886 -1727.5653448073572
14.399999999999885 -1656.7999217829574
14.429999999999884 -1592.9213544945505
14.459999999999884 -1537.879157862203
14.489999999999883 -1492.6764537665722
14.519999999999882 -1457.336542091508
14.549999999999882 -1430.9926493832231
14.579999999999881 -1412.0744821557666
14.60999999999988 -1398.5780084615662
14.63999999999988 -1388.3460808906884
14.66999999999988 -1379.3020826156303
14.699999999999878 -1369.661854612321
14.729999999999878 -1358.047543460907
14.759999999999877 -1343.637097467028
14.789999999999877 -1326.252739404402
14.819999999999876 -1306.301455566458
14.849999999999875 -1284.772692009085
14.879999999999875 -1263.151996600983
14.909999999999874 -1243.2114264896816
14.939999999999873 -1226.744647921375
14.969999999999873 -1215.326197490731
14.999999999999872 -1210.1252577697471
15.029999999999871 -1211.7282503919691
15.05999999999987 -1220.03732641926
15.08999999999987 -1234.2436779677398
15.11999999999987 -1252.9143814543067
15.149999999999869 -1274.1407844517535
15.179999999999868 -1295.7402056474439
15.209999999999868 -1315.5150639525475
15.239999999999867 -1331.5015470777269
15.269999999999866 -1342.170612678231
15.299999999999866 -1346.5750700317494
15.329999999999865 -1344.4389504384299
15.359999999999864 -1336.1539153007298
15.389999999999864 -1322.7174565405335
15.419999999999863 -1305.5801297450419
15.449999999999863 -1286.4017668824035
15.479999999999862 -1266.8280652439055
15.509999999999861 -1248.3347354242035
15.53999999999986 -1232.1205511179041
15.56999999999986 -1219.0190116008512
15.59999999999986 -1209.411569488289
15.629999999999859 -1203.2632031873845
15.659999999999858 -1200.1334215546608
15.689999999999857 -1199.2617861738124
15.719999999999857 -1199.6618841654945
15.749999999999856 -1200.3084197722617
15.779999999999855 -1200.25058583739
15.809999999999855 -1198.6280910317519
15.839999999999854 -1194.7804187603242
15.869999999999854 -1188.3616757755728
15.899999999999853 -1179.4132819398615
15.929999999999852 -1168.318689397038
15.959999999999852 -1155.8039875905506
15.989999999999851 -1142.8567048688071
16.01999999999985 -1130.570673119786
16.04999999999985 -1119.981034368557
16.079999999999853 -1111.9685815294945
