# Results for "element" with Id # 1678000 for search config "initial" at position: x0: 18.9526315789; y0: 20.5473684211; z0: 167.6667
# time PRESSURE
0.03 1331.7394105128692
0.06 3808.407878514348
0.09 7152.813240200909
0.12 11023.195279232998
0.15 15045.594483408093
0.18 18848.286677997326
0.21 22094.832153273004
0.24 24512.856376977445
0.27 25916.195633596377
0.30000000000000004 26218.64088249968
0.33000000000000007 25438.23252250946
0.3600000000000001 23691.889284131717
0.3900000000000001 21181.043287229666
0.42000000000000015 18169.809602122616
0.4500000000000002 14957.953558259287
0.4800000000000002 11851.420877979743
0.5100000000000002 9133.395106691874
0.5400000000000003 7038.707509608631
0.5700000000000003 5733.9650140296
0.6000000000000003 5305.0550517704505
0.6300000000000003 5752.83830230895
0.6600000000000004 6996.971782852586
0.6900000000000004 8887.03683822477
0.7200000000000004 11219.530247434974
0.7500000000000004 13758.870613507152
0.7800000000000005 16260.362563378088
0.8100000000000005 18493.027202340127
0.8400000000000005 20260.319790777936
0.8700000000000006 21416.991280827602
0.9000000000000006 21880.697782282397
0.9300000000000006 21637.416373652686
0.9600000000000006 20740.283691763078
0.9900000000000007 19302.081211630986
1.0200000000000007 17482.23107252697
1.0500000000000007 15469.716629925442
1.0800000000000007 13463.75210180847
1.1100000000000008 11654.219264596612
1.1400000000000008 10203.84331435362
1.1700000000000008 9233.808819625396
1.2000000000000008 8814.068681524002
1.2300000000000009 8959.050140562009
1.260000000000001 9628.876387090451
1.290000000000001 10735.69460868335
1.320000000000001 12154.232858552476
1.350000000000001 13735.384030469104
1.380000000000001 15321.404909884473
1.410000000000001 16761.247429024166
1.440000000000001 17924.594266099724
1.470000000000001 18713.343444883365
1.500000000000001 19069.563171635367
1.5300000000000011 18979.29244665486
1.5600000000000012 18471.977156662095
1.5900000000000012 17615.746630139314
1.6200000000000012 16509.148498460596
1.6500000000000012 15270.2806391739
1.6800000000000013 14024.49483582057
1.7100000000000013 12891.94348399212
1.7400000000000013 11976.203210694548
1.7700000000000014 11355.043132006553
1.8000000000000014 11074.13590486718
1.8300000000000014 11144.177317056736
1.8600000000000014 11541.518721410503
1.8900000000000015 12212.077259004225
1.9200000000000015 13077.984124791315
1.9500000000000015 14046.207466203305
1.9800000000000015 15018.236028860389
2.0100000000000016 15899.853627520173
2.0400000000000014 16610.065713867425
2.070000000000001 17088.35470998833
2.100000000000001 17299.629460663575
2.130000000000001 17236.4774835941
2.1600000000000006 16918.60706698309
2.1900000000000004 16389.64726616053
2.22 15711.734849479602
2.25 14958.523562831273
2.28 14207.385779742917
2.3099999999999996 13531.624526743704
2.3399999999999994 12993.473095878595
2.369999999999999 12638.53979896307
2.399999999999999 12492.174125407777
2.429999999999999 12558.012206720556
2.4599999999999986 12818.728182128214
2.4899999999999984 13238.801086227832
2.5199999999999982 13768.920120256296
2.549999999999998 14351.514034374832
2.579999999999998 14926.809206487218
2.6099999999999977 15438.800344676743
2.6399999999999975 15840.556379227277
2.6699999999999973 16098.375320130892
2.699999999999997 16194.435631384022
2.729999999999997 16127.753731509203
2.7599999999999967 15913.43340217158
2.7899999999999965 15580.360242939612
2.8199999999999963 15167.64483480752
2.849999999999996 14720.22848125532
2.879999999999996 14284.130578275395
2.9099999999999957 13901.830087361135
2.9399999999999955 13608.235787829668
2.9699999999999953 13427.61779404982
2.999999999999995 13371.757011691763
3.029999999999995 13439.43411073339
3.0599999999999947 13617.237342471015
3.0899999999999945 13881.541624234242
3.1199999999999943 14201.39884462973
3.149999999999994 14542.004599054835
3.179999999999994 14868.366329419321
3.2099999999999937 15148.797003171321
3.2399999999999936 15357.895077731697
3.2699999999999934 15478.739821112307
3.299999999999993 15504.123126408078
3.329999999999993 15436.744096477767
3.3599999999999928 15288.402033313614
3.3899999999999926 15078.319725980298
3.4199999999999924 14830.812987733098
3.449999999999992 14572.575439440749
3.479999999999992 14329.87274993161
3.509999999999992 14125.934217867873
3.5399999999999916 13978.793652442613
3.5699999999999914 13899.772443923293
3.599999999999991 13892.721536824756
3.629999999999991 13954.056769721003
3.659999999999991 14073.5395720343
3.6899999999999906 14235.682479601408
3.7199999999999904 14421.603185872458
3.7499999999999902 14611.115142564984
3.77999999999999 14784.830866195489
3.80999999999999 14926.064637703641
3.8399999999999896 15022.354684137124
3.8699999999999894 15066.472985336906
3.8999999999999893 15056.849423396268
3.929999999999989 14997.400687621004
3.959999999999989 14896.814555911868
3.9899999999999887 14767.394020815509
4.019999999999989 14623.603955479291
4.049999999999989 14480.48463295232
4.079999999999989 14352.100431573952
4.10999999999999 14250.178609833685
4.13999999999999 14183.06539745663
4.16999999999999 14155.086174126955
4.19999999999999 14166.350458351768
4.229999999999991 14212.99504336068
4.259999999999991 14287.813927370036
4.289999999999991 14381.189469430048
4.319999999999991 14482.212345650874
4.349999999999992 14579.862207474504
4.379999999999992 14664.128050052786
4.409999999999992 14726.95719078049
4.439999999999992 14762.947531823345
4.469999999999993 14769.728732177706
4.499999999999993 14748.012502560165
4.529999999999993 14701.327453015696
4.559999999999993 14635.485063437067
4.589999999999994 14557.847675922805
4.619999999999994 14476.485310301698
4.649999999999994 14399.31453442036
4.679999999999994 14333.307297702182
4.709999999999995 14283.845374924065
4.739999999999995 14254.276997436853
4.769999999999995 14245.708076434861
4.799999999999995 14257.034241959298
4.829999999999996 14285.195481792338
4.859999999999996 14325.612653134533
4.889999999999996 14372.75005625047
4.919999999999996 14420.738474185084
4.949999999999997 14463.990953290442
4.979999999999997 14497.74962307616
5.009999999999997 14518.512791404082
5.039999999999997 14524.30702358813
5.069999999999998 14514.785863648463
5.099999999999998 14491.157303570053
5.129999999999998 14455.958532982288
5.159999999999998 14412.711017249585
5.189999999999999 14365.499023971737
5.219999999999999 14318.519008172638
5.249999999999999 14275.648535706387
5.279999999999999 14240.076554519528
5.31 14214.028989136365
5.34 14198.60947705246
5.37 14193.7647582505
5.4 14198.370006791509
5.430000000000001 14210.41649781602
5.460000000000001 14227.274980890134
5.490000000000001 14246.003777270522
5.520000000000001 14263.667750011977
5.550000000000002 14277.634560061644
5.580000000000002 14285.8195615765
5.610000000000002 14286.857149520321
5.640000000000002 14280.18766613106
5.670000000000003 14266.058786948492
5.700000000000003 14245.445413183665
5.730000000000003 14219.902337895577
5.760000000000003 14191.36828222908
5.790000000000004 14161.945912179483
5.820000000000004 14133.68100768244
5.850000000000004 14108.361338583181
5.880000000000004 14087.357407494153
5.910000000000005 14071.51667715576
5.940000000000005 14061.118121024598
5.970000000000005 14055.886938454798
6.000000000000005 14055.06310700702
6.030000000000006 14057.514044716252
6.060000000000006 14061.875668171773
6.090000000000006 14066.705400601546
6.120000000000006 14070.632059523647
6.150000000000007 14072.488200802467
6.180000000000007 14071.4128045563
6.210000000000007 14066.91574598114
6.240000000000007 14058.901022714128
6.270000000000008 14047.649124013347
6.300000000000008 14033.76193908315
6.330000000000008 14018.081964868212
6.360000000000008 14001.59381169257
6.390000000000009 13985.318681942048
6.420000000000009 13970.212401191775
6.450000000000009 13957.076589931876
6.480000000000009 13946.492018621984
6.51000000000001 13938.778175956515
6.54000000000001 13933.981422135836
6.57000000000001 13931.889963809685
6.60000000000001 13932.072472018159
6.6300000000000106 13933.935309746594
6.660000000000011 13936.790973192667
6.690000000000011 13939.931518779595
6.720000000000011 13942.697478626858
6.7500000000000115 13944.537873376088
6.780000000000012 13945.05546626619
6.810000000000012 13944.033528229344
6.840000000000012 13941.444386971483
6.8700000000000125 13937.438965384219
6.900000000000013 13932.319503592029
6.930000000000013 13926.499544091761
6.960000000000013 13920.45547252135
6.9900000000000135 13914.676151758451
7.020000000000014 13909.615357033643
7.050000000000014 13905.6497182391
7.080000000000014 13903.0466470512
7.1100000000000145 13901.944356155213
7.140000000000015 13902.345110425329
7.170000000000015 13904.121806927691
7.200000000000015 13907.036411015795
7.2300000000000155 13910.767445360754
7.260000000000016 13914.944389096716
7.290000000000016 13919.185059826572
7.320000000000016 13923.131762577043
7.3500000000000165 13926.482763351407
7.380000000000017 13929.017024096474
7.410000000000017 13930.609904520017
7.440000000000017 13931.239447014974
7.4700000000000175 13930.981496854442
7.500000000000018 13929.996524960934
7.530000000000018 13928.509491843275
7.560000000000018 13926.784467044567
7.5900000000000185 13925.096421059508
7.620000000000019 13923.703681776571
7.650000000000019 13922.823643836053
7.680000000000019 13922.612746933537
7.7100000000000195 13923.153212945881
7.74000000000002 13924.447731840157
7.77000000000002 13926.42317187148
7.80000000000002 13928.940761509772
7.8300000000000205 13931.812485786464
7.860000000000021 13934.821905701563
7.890000000000021 13937.746955275496
7.920000000000021 13940.382184713828
7.9500000000000215 13942.5584746314
7.980000000000022 13944.158438499277
8.010000000000021 13945.12638060422
8.04000000000002 13945.471829370304
8.07000000000002 13945.266409735934
8.10000000000002 13944.635010377495
8.130000000000019 13943.741757346968
8.160000000000018 13942.7714045174
8.190000000000017 13941.909368545108
8.220000000000017 13941.32295197817
8.250000000000016 13941.145754702884
8.280000000000015 13941.465718043117
8.310000000000015 13942.318225193707
8.340000000000014 13943.684530724564
8.370000000000013 13945.495595103848
8.400000000000013 13947.640585939067
8.430000000000012 13949.979770894897
8.460000000000012 13952.360018143681
8.49000000000001 13954.631348050467
8.52000000000001 13956.66225675823
8.55000000000001 13958.35339392177
8.580000000000009 13959.647655427914
8.610000000000008 13960.534376528161
8.640000000000008 13961.04768847616
8.670000000000007 13961.261577050065
8.700000000000006 13961.280169900714
8.730000000000006 13961.225331116988
8.760000000000005 13961.222412519777
8.790000000000004 13961.385801033724
8.820000000000004 13961.806439868817
8.850000000000003 13962.542954048959
8.880000000000003 13963.616263315585
8.910000000000002 13965.00814042767
8.940000000000001 13966.664399072099
8.97 13968.500832700567
9.0 13970.413014677908
9.03 13972.287774286779
9.059999999999999 13974.013932478521
9.089999999999998 13975.492612143997
9.119999999999997 13976.64667692937
9.149999999999997 13977.42851709292
9.179999999999996 13977.824834793257
9.209999999999996 13977.855250879671
9.239999999999995 13977.568638774737
9.269999999999994 13977.034744225517
9.299999999999994 13976.33547659872
9.329999999999993 13975.555327083872
9.359999999999992 13974.771642317111
9.389999999999992 13974.046690389096
9.419999999999991 13973.421723695235
9.44999999999999 13972.913191159401
9.47999999999999 13972.512195195784
9.50999999999999 13972.18594959274
9.539999999999988 13971.881945990386
9.569999999999988 13971.535330481987
9.599999999999987 13971.077374868313
9.629999999999987 13970.443476610044
9.659999999999986 13969.578721416066
9.689999999999985 13968.442453592143
9.719999999999985 13967.011924066563
9.749999999999984 13965.2838225046
9.779999999999983 13963.274269222831
9.809999999999983 13961.013388698771
9.839999999999982 13958.539155913648
9.869999999999981 13955.891993161591
9.89999999999998 13953.110533384552
9.92999999999998 13950.227210633617
9.95999999999998 13947.2620240171
9.989999999999979 13944.219029364875
10.019999999999978 12768.192453727586
10.049999999999978 10049.443530060478
10.079999999999977 6212.0795563568645
10.109999999999976 1787.136870251984
10.139999999999976 -2656.1474490214055
10.169999999999975 -6582.173112110809
10.199999999999974 -9552.51053806143
10.229999999999974 -11272.909466485296
10.259999999999973 -11619.098095577894
10.289999999999973 -10640.046243488447
10.319999999999972 -8540.259002740428
10.349999999999971 -5644.7921165404105
10.37999999999997 -2352.32915218852
10.40999999999997 917.4287754704187
10.43999999999997 3775.4863910095846
10.469999999999969 5908.251644165652
10.499999999999968 7110.210734594718
10.529999999999967 7301.321787912377
10.559999999999967 6527.954485872195
10.589999999999966 4948.390997275586
10.619999999999965 2805.742545607918
10.649999999999965 392.5866220305397
10.679999999999964 -1987.709650847796
10.709999999999964 -4057.9806665375336
10.739999999999963 -5598.22083614158
10.769999999999962 -6467.286064344741
10.799999999999962 -6613.524903828364
10.829999999999961 -6074.0036327308835
10.85999999999996 -4963.386848214179
10.88999999999996 -3454.592324687949
10.919999999999959 -1754.1418689088437
10.949999999999958 -75.46497497315465
10.979999999999958 1386.5787837062621
11.009999999999957 2477.0920839406917
11.039999999999957 3096.2448289681934
11.069999999999956 3206.7766457960324
11.099999999999955 2833.569111984818
11.129999999999955 2055.939826592393
11.159999999999954 994.1127014345011
11.189999999999953 -208.0586016933728
11.219999999999953 -1401.7681669241472
11.249999999999952 -2451.0097897719797
11.279999999999951 -3247.380532945731
11.30999999999995 -3720.437595219828
11.33999999999995 -3842.7729668930406
11.36999999999995 -3629.6681704575576
11.399999999999949 -3133.831601904486
11.429999999999948 -2436.2435707967693
11.459999999999948 -1634.5071810276363
11.489999999999947 -830.2649049942859
11.519999999999946 -117.2082357517978
11.549999999999946 428.9894510321729
11.579999999999945 757.8223655648843
11.609999999999944 847.6101210089296
11.639999999999944 705.5510788860032
11.669999999999943 364.4690412059829
11.699999999999942 -123.08081116062142
11.729999999999942 -692.4460500929728
11.759999999999941 -1275.2227593034445
11.78999999999994 -1807.299430249844
11.81999999999994 -2235.709858455335
11.84999999999994 -2523.621706159791
11.879999999999939 -2653.0591968297185
11.909999999999938 -2625.255058849583
11.939999999999937 -2458.800910993048
11.969999999999937 -2186.01221747858
11.999999999999936 -1848.0823244016353
12.029999999999935 -1489.6760431798743
12.059999999999935 -1153.6295849877863
12.089999999999934 -876.3482161629495
12.119999999999933 -684.3503683865716
12.149999999999933 -592.2387559278716
12.179999999999932 -602.1793688898736
12.209999999999932 -704.8115926690143
12.239999999999931 -881.3425465392245
12.26999999999993 -1106.4901464496402
12.29999999999993 -1351.861955934216
12.329999999999929 -1589.3566877823714
12.359999999999928 -1794.2084502479852
12.389999999999928 -1947.3802561961693
12.419999999999927 -2037.1045935018747
12.449999999999926 -2059.4906374000093
12.479999999999926 -2018.2210715673737
12.509999999999925 -1923.4591018628957
12.539999999999925 -1790.1570671776972
12.569999999999924 -1636.015673386555
12.599999999999923 -1479.3555912591582
12.629999999999923 -1337.1344753287885
12.659999999999922 -1223.3064764367875
12.689999999999921 -1147.6595425534165
12.71999999999992 -1115.201542955444
12.74999999999992 -1126.099641377232
12.77999999999992 -1176.1321666812828
12.809999999999919 -1257.5331351181985
12.839999999999918 -1360.1321914783225
12.869999999999918 -1472.6084633814148
12.899999999999917 -1583.7336527731297
12.929999999999916 -1683.475518970918
12.959999999999916 -1763.9126420961072
12.989999999999915 -1819.8258160220626
13.019999999999914 -1848.9626034428059
13.049999999999914 -1852.000459277776
13.079999999999913 -1832.2236727127288
13.109999999999912 -1794.9909825336608
13.139999999999912 -1747.0730977657158
13.169999999999911 -1695.8904938275955
13.19999999999991 -1648.726920843776
13.22999999999991 -1612.0551374022555
13.25999999999991 -1591.00375271848
13.289999999999909 -1589.0120979295139
13.319999999999908 -1607.6853508774911
13.349999999999907 -1646.806551439884
13.379999999999907 -1704.5121126994168
13.409999999999906 -1777.5466448451425
13.439999999999905 -1861.5762475362058
13.469999999999905 -1951.6562529718112
13.499999999999904 -2042.7085706387047
13.529999999999903 -2129.9538088617696
13.559999999999903 -2209.2674479003413
13.589999999999902 -2277.370774361579
13.619999999999902 -2332.101807760808
13.6499999999999 -2372.4657755816206
13.6799999999999 -2398.5896476133103
13.7099999999999 -2411.6576959367894
13.739999999999899 -2413.727152714029
13.769999999999898 -2407.444236131833
13.799999999999898 -2395.723455664122
13.829999999999897 -2381.465843333477
13.859999999999896 -2367.2174831267953
13.889999999999896 -2354.9143896561127
13.919999999999895 -2345.63902510377
13.949999999999894 -2339.4699911403623
13.979999999999894 -2335.4453288151904
14.009999999999893 -2331.700290535686
14.039999999999893 -2325.738980986692
14.069999999999892 -2314.6911888504837
14.099999999999891 -2295.6645918145227
14.12999999999989 -2266.1554537340776
14.15999999999989 -2224.356367793501
14.18999999999989 -2169.4105923152415
14.219999999999889 -2101.511799675318
14.249999999999888 -2021.8974743727445
14.279999999999887 -1932.7676016779474
14.309999999999887 -1837.07891792504
14.339999999999886 -1738.287796867487
14.369999999999886 -1640.0118299592077
14.399999999999885 -1545.709279898754
14.429999999999884 -1458.37909100558
14.459999999999884 -1380.2669724759944
14.489999999999883 -1312.678250442596
14.519999999999882 -1255.9115453420782
14.549999999999882 -1209.2999667904649
14.579999999999881 -1171.466070992129
14.60999999999988 -1140.6148683498468
14.63999999999988 -1114.7820550430306
14.66999999999988 -1091.9943637357019
14.699999999999878 -1070.380074339379
14.729999999999878 -1048.4763230911035
14.759999999999877 -1025.2338334906162
14.789999999999877 -1000.1878231921592
14.819999999999876 -973.224372401386
14.849999999999875 -944.9278706699235
14.879999999999875 -916.5975529805651
14.909999999999874 -890.0261558315316
14.939999999999873 -867.1961591856209
14.969999999999873 -850.0174570068609
14.999999999999872 -840.1436350213028
15.029999999999871 -838.7225073417098
15.05999999999987 -846.1984399523739
15.08999999999987 -862.2365052613966
15.11999999999987 -885.7829819371668
15.149999999999869 -915.18613429251
15.179999999999868 -948.3721750995719
15.209999999999868 -983.0961768032676
15.239999999999867 -1017.1891586806757
15.269999999999866 -1048.7565631648172
15.299999999999866 -1076.3340290725387
15.329999999999865 -1099.0055515540116
15.359999999999864 -1116.442661284906
15.389999999999864 -1128.9001024993427
15.419999999999863 -1137.1254687233295
15.449999999999863 -1142.1610978017998
15.479999999999862 -1145.1604253680384
15.509999999999861 -1147.2584931409328
15.53999999999986 -1149.4767269277295
15.56999999999986 -1152.6166386827679
15.59999999999986 -1157.1290091547344
15.629999999999859 -1163.1063556126321
15.659999999999858 -1170.2606692576412
15.689999999999857 -1177.9826286199493
15.719999999999857 -1185.4203850845151
15.749999999999856 -1191.6605811058798
15.779999999999855 -1195.8499203689507
15.809999999999855 -1197.2140459166856
15.839999999999854 -1195.170381194599
15.869999999999854 -1189.4457919784347
15.899999999999853 -1180.157404979917
15.929999999999852 -1167.7887523491652
15.959999999999852 -1153.2092721183747
15.989999999999851 -1137.5921867162356
16.01999999999985 -1122.24886946568
16.04999999999985 -1108.4506143202818
16.079999999999853 -1097.3290497582752
16.109999999999854 -1089.7563147019798
