# Results for "element" with Id # 56682 for search config "initial" at position: x0: 4.6; y0: 34.9; z0: 167.6667
# time PRESSURE
0.03 1345.9532054521974
0.06 3849.0758869999727
0.09 7229.346073394681
0.12 11141.541875453086
0.15 15207.82834412345
0.18 19052.424442042124
0.21 22334.934862914448
0.24 24779.479428944163
0.27 26197.229715936894
0.30000000000000004 26500.523050470627
0.33000000000000007 25707.423983767585
0.3600000000000001 23936.437839388775
0.3900000000000001 21391.997969539996
0.42000000000000015 18342.259617695665
0.4500000000000002 15091.517912346675
0.4800000000000002 11950.115693240965
0.5100000000000002 9204.921920464223
0.5400000000000003 7093.30479561246
0.5700000000000003 5783.021874081389
0.6000000000000003 5359.694382079546
0.6300000000000003 5822.6451000740935
0.6600000000000004 7088.995822266224
0.6900000000000004 9005.146916049012
0.7200000000000004 11364.161069892169
0.7500000000000004 13927.171299845362
0.7800000000000005 16446.724552659674
0.8100000000000005 18689.93021871653
0.8400000000000005 20459.38874932485
0.8700000000000006 21610.11637025238
0.9000000000000006 22061.049222662154
0.9300000000000006 21800.201289530465
0.9600000000000006 20883.13970164344
0.9900000000000007 19425.08031109254
1.0200000000000007 17587.539407989938
1.0500000000000007 15561.015601571637
1.0800000000000007 13545.551230714209
1.1100000000000008 11731.184710424877
1.1400000000000008 10280.235853785463
1.1700000000000008 9313.085462426174
1.2000000000000008 8898.66483499094
1.2300000000000009 9050.325850772027
1.260000000000001 9727.193569588093
1.290000000000001 10840.578471663084
1.320000000000001 12264.57328942278
1.350000000000001 13849.63802380431
1.380000000000001 15437.773811597548
1.410000000000001 16877.818097464315
1.440000000000001 18039.44772853733
1.470000000000001 18824.64483497115
1.500000000000001 19175.647753168578
1.5300000000000011 19078.758715164236
1.5600000000000012 18563.785220123515
1.5900000000000012 17699.310477035928
1.6200000000000012 16584.402499001288
1.6500000000000012 15337.698846471045
1.6800000000000013 14085.048713246953
1.7100000000000013 12946.9947176964
1.7400000000000013 12027.341213895954
1.7700000000000014 11403.88947640869
1.8000000000000014 11122.1458284133
1.8300000000000014 11192.468416723184
1.8600000000000014 11590.753504592896
1.8900000000000015 12262.413997638112
1.9200000000000015 13129.098489222968
1.9500000000000015 14097.37437480836
1.9800000000000015 15068.450947164534
2.0100000000000016 15947.967941646548
2.0400000000000014 16654.91248460338
2.070000000000001 17128.84826102369
2.100000000000001 17334.831266766974
2.130000000000001 17265.631548409783
2.1600000000000006 16941.15347313141
2.1900000000000004 16405.225966189144
2.22 15720.18914633462
2.25 14959.906435516976
2.28 14201.966440558708
2.3099999999999996 13519.886830323772
2.3399999999999994 12976.096029795597
2.369999999999999 12616.35205559587
2.399999999999999 12466.080889869008
2.429999999999999 12528.898724004597
2.4599999999999986 12787.352327666056
2.4899999999999984 13205.690954261343
2.5199999999999982 13734.293804859859
2.549999999999998 14315.236738824398
2.579999999999998 14888.3964669989
2.6099999999999977 15397.469035962198
2.6399999999999975 15795.317078495042
2.6699999999999973 16048.152979213417
2.699999999999997 16138.201260541999
2.729999999999997 16064.648320769038
2.7599999999999967 15842.86697261069
2.7899999999999965 15502.073656599803
2.8199999999999963 15081.728099663176
2.849999999999996 14627.095294456758
2.879999999999996 14184.455173305201
2.9099999999999957 13796.456685099813
2.9399999999999955 13498.073852097732
2.9699999999999953 13313.536578716208
2.999999999999995 13254.491629338416
3.029999999999995 13319.513040093238
3.0599999999999947 13494.938070115748
3.0899999999999945 13756.87721002297
3.1199999999999943 14074.134642725872
3.149999999999994 14411.70163020346
3.179999999999994 14734.444787334358
3.2099999999999937 15010.611934111315
3.2399999999999936 15214.815308166722
3.2699999999999934 15330.221411309205
3.299999999999993 15349.769699355304
3.329999999999993 15276.348034136823
3.3599999999999928 15121.963012901724
3.3899999999999926 14906.039820270453
3.4199999999999924 14653.070326603058
3.449999999999992 14389.880353308366
3.479999999999992 14142.812319439956
3.509999999999992 13935.11197397587
3.5399999999999916 13784.771074849792
3.5699999999999914 13703.018314997467
3.599999999999991 13693.574666006716
3.629999999999991 13752.705375360138
3.659999999999991 13870.018244661227
3.6899999999999906 14029.886429252632
3.7199999999999904 14213.316928225824
3.7499999999999902 14400.051655089816
3.77999999999999 14570.676328989606
3.80999999999999 14708.524117553176
3.8399999999999896 14801.193428659262
3.8699999999999894 14841.54873020186
3.8999999999999893 14828.13292823102
3.929999999999989 14764.982904566165
3.959999999999989 14660.900738650273
3.9899999999999887 14528.286139745962
4.019999999999989 14381.673704585108
4.049999999999989 14236.140287977316
4.079999999999989 14105.751241794804
4.10999999999999 14002.20122798855
4.13999999999999 13933.776185298577
4.16999999999999 13904.722253186479
4.19999999999999 13915.061317769096
4.229999999999991 13960.844881002971
4.259999999999991 14034.7943185299
4.289999999999991 14127.239590930323
4.319999999999991 14227.243303317073
4.349999999999992 14323.784080966994
4.379999999999992 14406.875978378846
4.409999999999992 14468.514133039429
4.439999999999992 14503.361127375418
4.469999999999993 14509.120838083032
4.499999999999993 14486.581010124253
4.529999999999993 14439.340563589094
4.559999999999993 14373.268943835737
4.589999999999994 14295.768758580663
4.619999999999994 14214.929468979342
4.649999999999994 14138.665562102182
4.679999999999994 14073.926934237883
4.709999999999995 14026.05725887767
4.739999999999995 13998.35633626292
4.769999999999995 13991.877776724341
4.799999999999995 14005.46747462697
4.829999999999996 14036.023824372845
4.859999999999996 14078.938455822163
4.889999999999996 14128.661318724775
4.919999999999996 14179.32393375831
4.949999999999997 14225.353906064305
4.979999999999997 14262.019383284947
5.009999999999997 14285.852484137074
5.039999999999997 14294.916555073432
5.069999999999998 14288.900274523608
5.099999999999998 14269.041263604271
5.129999999999998 14237.897928137372
5.159999999999998 14199.002154765354
5.189999999999999 14156.436752381667
5.219999999999999 14114.385995359093
5.249999999999999 14076.706495931725
5.279999999999999 14046.560005085437
5.31 14026.140817342442
5.34 14016.519556175903
5.37 14017.61130858271
5.4 14028.263206412359
5.430000000000001 14046.446195941648
5.460000000000001 14069.523822866357
5.490000000000001 14094.561166787773
5.520000000000001 14118.637449216149
5.550000000000002 14139.132310256264
5.580000000000002 14153.965510559477
5.610000000000002 14161.77985784523
5.640000000000002 14162.036634039729
5.670000000000003 14155.002592608627
5.700000000000003 14141.658811722205
5.730000000000003 14123.549261741224
5.760000000000003 14102.588698036076
5.790000000000004 14080.847474497328
5.820000000000004 14060.331033295377
5.850000000000004 14042.783786594486
5.880000000000004 14029.534953826682
5.910000000000005 14021.397387499814
5.940000000000005 14018.624254324992
5.970000000000005 14020.921086423883
6.000000000000005 14027.50995235669
6.030000000000006 14037.242096416965
6.060000000000006 14048.741488698848
6.090000000000006 14060.558634649396
6.120000000000006 14071.319314321248
6.150000000000007 14079.855773529009
6.180000000000007 14085.308620614847
6.210000000000007 14087.191903947652
6.240000000000007 14085.415955719134
6.270000000000008 14080.267075071855
6.300000000000008 14072.349211853518
6.330000000000008 14062.493254481575
6.360000000000008 14051.663210520095
6.390000000000009 14040.858782774485
6.420000000000009 14031.014341596598
6.450000000000009 14022.913513104062
6.480000000000009 14017.12646801494
6.51000000000001 14013.96922244787
6.54000000000001 14013.488826944904
6.57000000000001 14015.47541464425
6.60000000000001 14019.500319910672
6.6300000000000106 14024.974840985282
6.660000000000011 14031.21719575488
6.690000000000011 14037.524122339953
6.720000000000011 14043.23953983394
6.7500000000000115 14047.817242504532
6.780000000000012 14050.867634206563
6.810000000000012 14052.184275790882
6.840000000000012 14051.75099773765
6.8700000000000125 14049.729601679166
6.900000000000013 14046.431289183003
6.930000000000013 14042.276971351195
6.960000000000013 14037.75046691665
6.9900000000000135 14033.349476985575
7.020000000000014 14029.537868834797
7.050000000000014 14026.703025932775
7.080000000000014 14025.12326847261
7.1100000000000145 14024.947670712236
7.140000000000015 14026.189421322968
7.170000000000015 14028.732379324363
7.200000000000015 14032.349543666664
7.2300000000000155 14036.730751864132
7.260000000000016 14041.517036095735
7.290000000000016 14046.337711745782
7.320000000000016 14050.846013697466
7.3500000000000165 14054.749917324261
7.380000000000017 14057.836374533199
7.410000000000017 14059.987250823582
7.440000000000017 14061.185278600078
7.4700000000000175 14061.508907158346
7.500000000000018 14061.1197596063
7.530000000000018 14060.243223995305
7.560000000000018 14059.143051125147
7.5900000000000185 14058.092403598512
7.620000000000019 14057.346072392758
7.650000000000019 14057.116967349084
7.680000000000019 14057.557018614998
7.7100000000000195 14058.74428136324
7.74000000000002 14060.677285099577
7.77000000000002 14063.277948589335
7.80000000000002 14066.401130508284
7.8300000000000205 14069.850862336385
7.860000000000021 14073.401217776604
7.890000000000021 14076.819237676573
7.920000000000021 14079.887581982424
7.9500000000000215 14082.42480119817
7.980000000000022 14084.301365398993
8.010000000000021 14085.450818564554
8.04000000000002 14085.874102075788
8.07000000000002 14085.636316293625
8.10000000000002 14084.857747329817
8.130000000000019 14083.699490140869
8.160000000000018 14082.344646541698
8.190000000000017 14080.978683088111
8.220000000000017 14079.77092753984
8.250000000000016 14078.858911961759
8.280000000000015 14078.335867123706
8.310000000000015 14078.243105012945
8.340000000000014 14078.568234382656
8.370000000000013 14079.248865012163
8.400000000000013 14080.181073861648
8.430000000000012 14081.23255542507
8.460000000000012 14082.258504269756
8.49000000000001 14083.118803452093
8.52000000000001 14083.6895212154
8.55000000000001 14083.877940353985
8.580000000000009 14083.633790590284
8.610000000000008 14082.955063980758
8.640000000000008 14081.886830342255
8.670000000000007 14080.514983311881
8.700000000000006 14078.955479117081
8.730000000000006 14077.341299208014
8.760000000000005 14075.808693977979
8.790000000000004 14074.48413057909
8.820000000000004 14073.472453446902
8.850000000000003 14072.847751907797
8.880000000000003 14072.647204202853
8.910000000000002 14072.869573032143
8.940000000000001 14073.479938628563
8.97 14074.414507064714
9.0 14075.589412904486
9.03 14076.910494128497
9.059999999999999 14078.28302388808
9.089999999999998 14079.622205308027
9.119999999999997 14080.865317788133
9.149999999999997 14081.98004119201
9.179999999999996 14082.967602692454
9.209999999999996 14083.859627875176
9.239999999999995 14084.712200571523
9.269999999999994 14085.601554661453
9.299999999999994 14086.613941049169
9.329999999999993 14087.837897594025
9.359999999999992 14089.354072695525
9.389999999999992 14091.225036827183
9.419999999999991 14093.489646878144
9.44999999999999 14096.159657158314
9.47999999999999 14099.21945460739
9.50999999999999 14102.627773310323
9.539999999999988 14106.32334256297
9.569999999999988 14110.233289734944
9.599999999999987 14114.279318407873
9.629999999999987 14118.386391317874
9.659999999999986 14122.489301319718
9.689999999999985 14126.538310052394
9.719999999999985 14130.502269605087
9.749999999999984 14134.370919457597
9.779999999999983 14138.15426614253
9.809999999999983 14141.875320051959
9.839999999999982 14145.562862753526
9.869999999999981 14149.248094924198
9.89999999999998 14152.960886105182
9.92999999999998 14156.723100273985
9.95999999999998 14160.541465746212
9.989999999999979 14164.404233949768
10.019999999999978 12980.498399046375
10.049999999999978 10234.463210840007
10.079999999999977 6356.889112651177
10.109999999999976 1887.9274576823236
10.139999999999976 -2593.2796863004396
10.169999999999975 -6542.784063195722
10.199999999999974 -9517.30134212613
10.229999999999974 -11222.056015004291
10.259999999999973 -11536.131761276263
10.289999999999973 -10514.355598130971
10.319999999999972 -8367.853493187244
10.349999999999971 -5427.534165190175
10.37999999999997 -2096.2082284491917
10.40999999999997 1204.2698980957427
10.43999999999997 4084.452056444375
10.469999999999969 6231.421293066917
10.499999999999968 7440.90987833938
10.529999999999967 7634.311429389249
10.559999999999967 6859.521366053794
10.589999999999966 5276.491925539752
10.619999999999965 3130.2263454131507
10.649999999999965 715.3667782531628
10.679999999999964 -1662.7416776984662
10.709999999999964 -3725.326878493895
10.739999999999963 -5251.46394692707
10.769999999999962 -6100.025033757457
10.799999999999962 -6220.38431229457
10.829999999999961 -5651.490185493225
10.85999999999996 -4510.4122536101095
10.88999999999996 -2972.5592798640323
10.919999999999959 -1246.595914221783
10.949999999999958 452.58013945642193
10.979999999999958 1929.4830723268783
11.009999999999957 3029.4372709276777
11.039999999999957 3653.5376356164643
11.069999999999956 3765.918296424211
11.099999999999955 3393.0601515693884
11.129999999999955 2615.8349772142237
11.159999999999954 1555.76679388325
11.189999999999953 357.6184960353061
11.219999999999953 -829.34357377877
11.249999999999952 -1869.0855921440852
11.279999999999951 -2653.5374258536476
11.30999999999995 -3112.8450122365343
11.33999999999995 -3220.329602557866
11.36999999999995 -2992.024799188181
11.399999999999949 -2481.30942441776
11.429999999999948 -1769.6727774006076
11.459999999999948 -955.0192649997055
11.489999999999947 -139.06821896568246
11.519999999999946 584.6237020373434
11.549999999999946 1140.6887359313962
11.579999999999945 1479.0335824699935
11.609999999999944 1578.4189602369934
11.639999999999944 1446.4270411435318
11.669999999999943 1116.1297126751379
11.699999999999942 640.1336746882698
11.729999999999942 82.91391387870227
11.759999999999941 -487.530951256878
11.78999999999994 -1007.6887386297534
11.81999999999994 -1425.325263035957
11.84999999999994 -1704.3952605207137
11.879999999999939 -1827.6844452337818
11.909999999999938 -1797.0889604428976
11.939999999999937 -1631.7101853494282
11.969999999999937 -1364.182779231593
11.999999999999936 -1035.8074868524818
12.029999999999935 -691.1495691618765
12.059999999999935 -372.76286786521894
12.089999999999934 -116.62104680061012
12.119999999999933 51.295096459789335
12.149999999999933 116.9788765643344
12.179999999999932 78.86904227041023
12.209999999999932 -53.10290386590041
12.239999999999931 -259.6418091300953
12.26999999999993 -515.0512109176358
12.29999999999993 -790.6146783802461
12.329999999999929 -1057.9865386464564
12.359999999999928 -1292.216054339959
12.389999999999928 -1474.114287404394
12.419999999999927 -1591.7697457700742
12.449999999999926 -1641.1368925954957
12.479999999999926 -1625.7243842046316
12.509999999999925 -1555.5057172647091
12.539999999999925 -1445.2442421087198
12.569999999999924 -1312.4748075059642
12.599999999999923 -1175.3954175987515
12.629999999999923 -1050.8976601371555
12.659999999999922 -952.9310422377548
12.689999999999921 -891.3365255032267
12.71999999999992 -871.223497175661
12.74999999999992 -892.9012524864985
12.77999999999992 -952.3123031996914
12.809999999999919 -1041.8617377465193
12.839999999999918 -1151.5423308677855
12.869999999999918 -1270.1786680246448
12.899999999999917 -1386.6661494304885
12.929999999999916 -1491.0783666641487
12.959999999999916 -1575.5557493382987
12.989999999999915 -1634.875497151689
13.019999999999914 -1666.7295892033326
13.049999999999914 -1671.6653839706883
13.079999999999913 -1652.7549207806271
13.109999999999912 -1615.0594278250665
13.139999999999912 -1564.9508037952542
13.169999999999911 -1509.4364844830668
13.19999999999991 -1455.4597352820488
13.22999999999991 -1409.2516777717628
13.25999999999991 -1375.7989578961322
13.289999999999909 -1358.4678357065704
13.319999999999908 -1358.8076674741333
13.349999999999907 -1376.5174642361083
13.379999999999907 -1409.6042486097435
13.409999999999906 -1454.70323739278
13.439999999999905 -1507.5033355474366
13.469999999999905 -1563.2528778839917
13.499999999999904 -1617.2268568740637
13.529999999999903 -1665.1555905101427
13.559999999999903 -1703.5626424128875
13.589999999999902 -1730.033510365249
13.619999999999902 -1743.439542355382
13.6499999999999 -1743.9947597964203
13.6799999999999 -1733.153064229874
13.7099999999999 -1713.4266614288672
13.739999999999899 -1688.1181905029844
13.769999999999898 -1660.951911346483
13.799999999999898 -1635.696783058099
13.829999999999897 -1615.8022411435418
13.859999999999896 -1604.0562303337376
13.889999999999896 -1602.3333185503104
13.919999999999895 -1611.4321361880668
13.949999999999894 -1631.0338300419198
13.979999999999894 -1659.7612972287993
14.009999999999893 -1695.3460920136986
14.039999999999893 -1734.9136222312688
14.069999999999892 -1775.2712221460597
14.099999999999891 -1813.2389006607127
14.12999999999989 -1845.9927025519924
14.15999999999989 -1871.340638504786
14.18999999999989 -1887.9165159129116
14.219999999999889 -1895.291905311785
14.249999999999888 -1893.9960971892647
14.279999999999887 -1885.4357937697669
14.309999999999887 -1871.716066305887
14.339999999999886 -1855.3987871342686
14.369999999999886 -1839.1925756278765
14.399999999999885 -1825.6527681506814
14.429999999999884 -1816.919760797198
14.459999999999884 -1814.4749342083558
14.489999999999883 -1818.9858022181065
14.519999999999882 -1830.2518858822025
14.549999999999882 -1847.248446126447
14.579999999999881 -1868.2601739646295
14.60999999999988 -1891.093415342105
14.63999999999988 -1913.3357551608874
14.66999999999988 -1932.6243221071402
14.699999999999878 -1946.9007106024328
14.729999999999878 -1954.6082278375616
14.759999999999877 -1954.8427674615614
14.789999999999877 -1947.4260390079785
14.819999999999876 -1932.8846856960276
14.849999999999875 -1912.3659555556958
14.879999999999875 -1887.4796074853184
14.909999999999874 -1860.0922208448396
14.939999999999873 -1832.1052420983278
14.969999999999873 -1805.246763912261
14.999999999999872 -1780.8991249110563
15.029999999999871 -1759.9659579581812
15.05999999999987 -1742.7998136997694
15.08999999999987 -1729.1862072196311
15.11999999999987 -1718.4017652405425
15.149999999999869 -1709.3201126676818
15.179999999999868 -1700.5611825616431
15.209999999999868 -1690.6766954127775
15.239999999999867 -1678.3327037344443
15.269999999999866 -1662.4697801688305
15.299999999999866 -1642.425490724284
15.329999999999865 -1618.0091222717351
15.359999999999864 -1589.518427124948
15.389999999999864 -1557.7126154697767
15.419999999999863 -1523.7211518513918
15.449999999999863 -1488.8997139074145
15.479999999999862 -1454.682594909242
15.509999999999861 -1422.4507460439293
15.53999999999986 -1393.407114869121
15.56999999999986 -1368.4627257594664
15.59999999999986 -1348.1434710203364
15.629999999999859 -1332.5665594099485
15.659999999999858 -1321.4225762981825
15.689999999999857 -1314.0348389050969
15.719999999999857 -1309.440506522278
15.749999999999856 -1306.5237429969534
15.779999999999855 -1304.1296646268743
15.809999999999855 -1301.149844797214
15.839999999999854 -1296.6492189953524
15.869999999999854 -1289.9785460153676
15.899999999999853 -1280.833424429713
15.929999999999852 -1269.2340527165666
15.959999999999852 -1255.5123182330083
15.989999999999851 -1240.2477176909829
16.01999999999985 -1224.1607224704092
16.04999999999985 -1207.9996811712676
16.079999999999853 -1192.4565524121833
