# Results for "element" with Id # 79344 for search config "initial" at position: x0: 33.3052631579; y0: 6.19473684211; z0: 167.6667
# time PRESSURE
0.03 1324.2164555636475
0.06 3786.8460385693998
0.09 7112.225216764909
0.12 10960.498463485517
0.15 14959.819309282173
0.18 18740.608137734278
0.21 21968.42422236035
0.24 24372.577401534167
0.27 25768.123672697067
0.30000000000000004 26069.491785312952
0.33000000000000007 25294.708383090845
0.3600000000000001 23560.017472470005
0.3900000000000001 21065.573073773478
0.42000000000000015 18073.734791058316
0.4500000000000002 14882.220563395262
0.4800000000000002 11794.862730915609
0.5100000000000002 9092.903321771068
0.5400000000000003 7009.620206540208
0.5700000000000003 5710.619034349431
0.6000000000000003 5281.428613223562
0.6300000000000003 5723.205326243073
0.6600000000000004 6956.495074754966
0.6900000000000004 8832.245484880721
0.7200000000000004 11148.643018720795
0.7500000000000004 13671.94372014307
0.7800000000000005 16159.251252480051
0.8100000000000005 18381.16053920263
0.8400000000000005 20142.300662395155
0.8700000000000006 21298.0520603248
0.9000000000000006 21766.066706244997
0.9300000000000006 21531.672195123592
0.9600000000000006 20646.792447402586
0.9900000000000007 19222.60096912229
1.0200000000000007 17416.749980441564
1.0500000000000007 15416.54579875241
1.0800000000000007 13419.849414638946
1.1100000000000008 11615.68121173964
1.1400000000000008 10166.47921282233
1.1700000000000008 9193.70812564367
1.2000000000000008 8768.08310928285
1.2300000000000009 8905.134454763485
1.260000000000001 9566.254685064132
1.290000000000001 10664.845716231324
1.320000000000001 12076.708962827142
1.350000000000001 13653.498255702178
1.380000000000001 15237.840034714338
1.410000000000001 16678.648332560715
1.440000000000001 17845.207806587045
1.470000000000001 18638.759006291108
1.500000000000001 19000.587276458802
1.5300000000000011 18915.963190126546
1.5600000000000012 18413.698590428357
1.5900000000000012 17561.501730874857
1.6200000000000012 16457.74027176582
1.6500000000000012 15220.553026635114
1.6800000000000013 13975.496642079466
1.7100000000000013 12843.01600421785
1.7400000000000013 11926.99087571928
1.7700000000000014 11305.442350285903
1.8000000000000014 11024.206786376146
1.8300000000000014 11094.046829753182
1.8600000000000014 11491.299900199116
1.8900000000000015 12161.821931342749
1.9200000000000015 13027.675822966641
1.9500000000000015 13995.790506793202
1.9800000000000015 14967.668667977454
2.0100000000000016 15849.168424814174
2.0400000000000014 16559.41951298425
2.070000000000001 17038.053700951394
2.100000000000001 17250.121262056196
2.130000000000001 17188.30927405084
2.1600000000000006 16872.356638054254
2.1900000000000004 16345.839488014239
2.22 15670.758876266236
2.25 14920.56678832919
2.28 14172.39654024607
2.3099999999999996 13499.310746911715
2.3399999999999994 12963.337252249818
2.369999999999999 12609.944637987504
2.399999999999999 12464.428460070383
2.429999999999999 12530.463685594232
2.4599999999999986 12790.849295051006
2.4899999999999984 13210.25646963953
2.5199999999999982 13739.606971805428
2.549999999999998 14321.570959108587
2.579999999999998 14896.594128787725
2.6099999999999977 15408.841744197118
2.6399999999999975 15811.485576315341
2.6699999999999973 16070.849407063688
2.699999999999997 16169.061230242405
2.729999999999997 16105.021081558716
2.7599999999999967 15893.668333095335
2.7899999999999965 15563.698950405536
2.8199999999999963 15154.032841471275
2.849999999999996 14709.442734220833
2.879999999999996 14275.820248031605
2.9099999999999957 13895.570017404047
2.9399999999999955 13603.585284170058
2.9699999999999953 13424.177414703227
2.999999999999995 13369.216848461336
3.029999999999995 13437.608570411117
3.0599999999999947 13616.083395932746
3.0899999999999945 13881.159743582979
3.1199999999999943 14202.018120909916
3.149999999999994 14543.954744608367
3.179999999999994 14872.040958662008
3.2099999999999937 15154.612851138487
3.2399999999999936 15366.251958005285
3.2699999999999934 15489.985540815273
3.299999999999993 15518.526603586059
3.329999999999993 15454.478844078034
3.3599999999999928 15309.540948204643
3.3899999999999926 15102.840918564028
3.4199999999999924 14858.615139613577
3.449999999999992 14603.500839961365
3.479999999999992 14363.735152353107
3.509999999999992 14162.54829374154
3.5399999999999916 14018.0028874786
3.5699999999999914 13941.47249526712
3.599999999999991 13936.87705517066
3.629999999999991 14000.709845684134
3.659999999999991 14122.809423475159
3.6899999999999906 14287.756858402347
3.7199999999999904 14476.722818668779
3.7499999999999902 14669.552995107819
3.77999999999999 14846.868922404557
3.80999999999999 14991.971319776034
3.8399999999999896 15092.365272105182
3.8699999999999894 15140.774729713165
3.8999999999999893 15135.572581683791
3.929999999999989 15080.616327221182
3.959999999999989 14984.53920767788
3.9899999999999887 14859.600389971447
4.019999999999989 14720.235588996262
4.049999999999989 14581.472786856164
4.079999999999989 14457.381238071528
4.10999999999999 14359.708848336842
4.13999999999999 14296.835160644432
4.16999999999999 14273.127392086706
4.19999999999999 14288.740696554982
4.229999999999991 14339.856742793352
4.259999999999991 14419.309611794468
4.289999999999991 14517.512959849591
4.319999999999991 14623.575893932219
4.349999999999992 14726.48291549116
4.379999999999992 14816.214862625839
4.409999999999992 14884.700205221914
4.439999999999992 14926.510758570115
4.469999999999993 14939.246794088509
4.499999999999993 14923.591427566571
4.529999999999993 14883.049202768008
4.559999999999993 14823.41493381046
4.589999999999994 14752.04347391062
4.619999999999994 14677.006975026175
4.649999999999994 14606.232422980709
4.679999999999994 14546.70844837892
4.709999999999995 14503.837453952481
4.739999999999995 14480.98974550661
4.769999999999995 14479.292269320646
4.799999999999995 14497.658565363756
4.829999999999996 14533.041326471268
4.859999999999996 14580.867600411715
4.889999999999996 14635.600423977881
4.919999999999996 14691.36216673092
4.949999999999997 14742.551481512659
4.979999999999997 14784.391552278239
5.009999999999997 14813.358823804861
5.039999999999997 14827.456873548415
5.069999999999998 14826.317291105648
5.099999999999998 14811.129040888774
5.129999999999998 14784.414192624045
5.159999999999998 14749.683780041341
5.189999999999999 14711.016487204934
5.219999999999999 14672.608293517025
5.249999999999999 14638.340751373486
5.279999999999999 14611.409551163488
5.31 14594.047752382583
5.34 14587.365374401188
5.37 14591.313080705322
5.4 14604.765975781798
5.430000000000001 14625.710816403096
5.460000000000001 14651.50943234322
5.490000000000001 14679.20721305688
5.520000000000001 14705.852616599237
5.550000000000002 14728.79401172159
5.580000000000002 14745.925253936866
5.610000000000002 14755.859132230402
5.640000000000002 14758.016117211591
5.670000000000003 14752.625939465708
5.700000000000003 14740.647202794673
5.730000000000003 14723.619535394328
5.760000000000003 14703.4674791258
5.790000000000004 14682.280389169304
5.820000000000004 14662.09097992901
5.850000000000004 14644.674943096159
5.880000000000004 14631.391015303747
5.910000000000005 14623.07401465221
5.940000000000005 14619.988048664814
5.970000000000005 14621.840520251724
6.000000000000005 14627.850532019247
6.030000000000006 14636.860993242733
6.060000000000006 14647.479787262366
6.090000000000006 14658.234308487794
6.120000000000006 14667.722649822208
6.150000000000007 14674.746875907878
6.180000000000007 14678.416346186239
6.210000000000007 14678.212746592484
6.240000000000007 14674.013812327
6.270000000000008 14666.076373746622
6.300000000000008 14654.982477699961
6.330000000000008 14641.55782532074
6.360000000000008 14626.772459045857
6.390000000000009 14611.63459724801
6.420000000000009 14597.08833513943
6.450000000000009 14583.924620389607
6.480000000000009 14572.714411743711
6.51000000000001 14563.768054387025
6.54000000000001 14557.123067475834
6.57000000000001 14552.559342133496
6.60000000000001 14549.6384420713
6.6300000000000106 14547.761325941781
6.660000000000011 14546.237243182934
6.690000000000011 14544.35716493563
6.720000000000011 14541.463189098657
6.7500000000000115 14537.008413370124
6.780000000000012 14530.602229933931
6.810000000000012 14522.037053979073
6.840000000000012 14511.296528028062
6.8700000000000125 14498.544888744304
6.900000000000013 14484.099547590906
6.930000000000013 14468.391267840068
6.960000000000013 14451.915657602864
6.9900000000000135 14435.18207644846
7.020000000000014 14418.665394313422
7.050000000000014 14402.763534038066
7.080000000000014 14387.765391132905
7.1100000000000145 14373.830867745108
7.140000000000015 14360.984402687749
7.170000000000015 14349.121995580354
7.200000000000015 14338.029812309083
7.2300000000000155 14327.411497216308
7.260000000000016 14316.922505220813
7.290000000000016 14306.206862955842
7.320000000000016 14294.932774445977
7.3500000000000165 14282.823967715822
7.380000000000017 14269.684470549364
7.410000000000017 14255.414517570549
7.440000000000017 14240.017000179709
7.4700000000000175 14223.593047795282
7.500000000000018 14206.328880351499
7.530000000000018 14188.475320108133
7.560000000000018 14170.322179048935
7.5900000000000185 14152.169856455148
7.620000000000019 14134.301315824156
7.650000000000019 14116.957160889835
7.680000000000019 14100.316202841801
7.7100000000000195 14084.483143727588
7.74000000000002 14069.483702397214
7.77000000000002 14055.268324847282
7.80000000000002 14041.722636841332
7.8300000000000205 14028.68418375718
7.860000000000021 14015.963186874662
7.890000000000021 14003.365189752685
7.920000000000021 13990.713348795109
7.9500000000000215 13977.868645916722
7.980000000000022 13964.745376318935
8.010000000000021 13951.320864413517
8.04000000000002 13937.63863717229
8.07000000000002 13923.804899400624
8.10000000000002 13909.978648731476
8.130000000000019 13896.356669066383
8.160000000000018 13883.154988600518
8.190000000000017 13870.588556492614
8.220000000000017 13858.851894470536
8.250000000000016 13848.10263012729
8.280000000000015 13838.44856938445
8.310000000000015 13829.940361309786
8.340000000000014 13822.569841250044
8.370000000000013 13816.274158941465
8.400000000000013 13810.944924759295
8.430000000000012 13806.441566962425
8.460000000000012 13802.60749278031
8.49000000000001 13799.287089729547
8.52000000000001 13796.34177266595
8.55000000000001 13793.663552036953
8.580000000000009 13791.185021590749
8.610000000000008 13788.884156043881
8.640000000000008 13786.78384273596
8.670000000000007 13784.947098982297
8.700000000000006 13783.467539405949
8.730000000000006 13782.457004118289
8.760000000000005 13782.031338222561
8.790000000000004 13782.295908416076
8.820000000000004 13783.333064890106
8.850000000000003 13785.192457998239
8.880000000000003 13787.884751440912
8.910000000000002 13791.379227562204
8.940000000000001 13795.60587159109
8.97 13800.461260116148
9.0 13805.81811007457
9.03 13811.536604324265
9.059999999999999 13817.476097726067
9.089999999999998 13823.506359470945
9.119999999999997 13829.516730109313
9.149999999999997 13835.423114675315
9.179999999999996 13841.172102181416
9.209999999999996 13846.741142639901
9.239999999999995 13852.135348257922
9.269999999999994 13857.38026354251
9.299999999999994 13862.514771146783
9.329999999999993 13867.58183716179
9.359999999999992 13872.619174889152
9.389999999999992 13877.65142937224
9.419999999999991 13882.684091998653
9.44999999999999 13887.699704740677
9.47999999999999 13892.657517076166
9.50999999999999 13897.495291583902
9.539999999999988 13902.133305822459
9.569999999999988 13906.48091088919
9.599999999999987 13910.444798591028
9.629999999999987 13913.936219572508
9.659999999999986 13916.876134229557
9.689999999999985 13919.199653363714
9.719999999999985 13920.860544185129
9.749999999999984 13921.833662353456
9.779999999999983 13922.11538516564
9.809999999999983 13921.719092107687
9.839999999999982 13920.669799297972
9.869999999999981 13918.999077217839
9.89999999999998 13916.741321777361
9.92999999999998 13913.929929191876
9.95999999999998 13910.59038057555
9.989999999999979 13906.736257261935
10.019999999999978 12739.89165064093
10.049999999999978 10042.470690365979
10.079999999999977 6232.764144411054
10.109999999999976 1835.1944312897529
10.139999999999976 -2586.7497872051895
10.169999999999975 -6500.9827320034265
10.199999999999974 -9469.796070676648
10.229999999999974 -11197.270382235958
10.259999999999973 -11556.18030516082
10.289999999999973 -10592.530362015877
10.319999999999972 -8508.752264046274
10.349999999999971 -5628.971334800404
10.37999999999997 -2351.737353047796
10.40999999999997 903.209282684383
10.43999999999997 3747.178065140134
10.469999999999969 5867.3772725491235
10.499999999999968 7059.344926054797
10.529999999999967 7243.8847187917545
10.559999999999967 6467.583392341345
10.589999999999966 4888.133199734276
10.619999999999965 2747.368587345601
10.649999999999965 336.2487195272927
10.679999999999964 -2043.3983966213514
10.709999999999964 -4115.526021635963
10.739999999999963 -5660.651854083913
10.769999999999962 -6537.558421714778
10.799999999999962 -6694.046943055157
10.829999999999961 -6166.33981054108
10.85999999999996 -5068.131102230624
10.88999999999996 -3571.3741051829456
10.919999999999959 -1881.7305833333737
10.949999999999958 -211.95466983313497
10.979999999999958 1243.5272001589626
11.009999999999957 2329.963767893225
11.039999999999957 2947.3679452673387
11.069999999999956 3058.042114839138
11.099999999999955 2686.218630138714
11.129999999999955 1910.452915867144
11.159999999999954 850.2076558382792
11.189999999999953 -351.32260491171564
11.219999999999953 -1545.8112843407068
11.249999999999952 -2597.5068360392825
11.279999999999951 -3398.0267033211403
11.30999999999995 -3876.7360918227305
11.33999999999995 -4005.8645702097
11.36999999999995 -3800.2160189556794
11.399999999999949 -3311.965157194747
11.429999999999948 -2621.560352599409
11.459999999999948 -1826.1250852281069
11.489999999999947 -1026.914785524537
11.519999999999946 -317.3535171214483
11.549999999999946 227.02082738445242
11.579999999999945 555.7092873910511
11.609999999999944 646.9262795660107
11.639999999999944 507.68023617605144
11.669999999999943 170.55257369591516
11.699999999999942 -312.1621897920403
11.729999999999942 -876.0590383277015
11.759999999999941 -1452.9421835728483
11.78999999999994 -1978.8498422686189
11.81999999999994 -2400.8998164504987
11.84999999999994 -2682.281196128467
11.879999999999939 -2804.991315232258
11.909999999999938 -2770.2113287494312
11.939999999999937 -2596.483117190249
11.969999999999937 -2316.0988867652313
11.999999999999936 -1970.2705711144179
12.029999999999935 -1603.7320760033554
12.059999999999935 -1259.4362262474156
12.089999999999934 -973.9390458665808
12.119999999999933 -773.9256065144307
12.149999999999933 -674.1623780088503
12.179999999999932 -676.9570796120704
12.209999999999932 -773.0524802952294
12.239999999999931 -943.7081838455485
12.26999999999993 -1163.6371833565981
12.29999999999993 -1404.3864983019266
12.329999999999929 -1637.7462882835166
12.359999999999928 -1838.81023366086
12.389999999999928 -1988.3902904564975
12.419999999999927 -2074.5770356410976
12.449999999999926 -2093.366312093975
12.479999999999926 -2048.3699734761444
12.509999999999925 -1949.7380755969325
12.539999999999925 -1812.480090540191
12.569999999999924 -1654.4291195851786
12.599999999999923 -1494.1080858434934
12.629999999999923 -1348.7304859618623
12.659999999999922 -1232.5362235804778
12.689999999999921 -1155.5997646442324
12.71999999999992 -1123.1883487510843
12.74999999999992 -1135.6779898418115
12.77999999999992 -1188.9781289996354
12.809999999999919 -1275.3630989581377
12.839999999999918 -1384.6016737451262
12.869999999999918 -1505.2197602490214
12.899999999999917 -1625.760827430599
12.929999999999916 -1735.9188251523497
12.959999999999916 -1827.4567109622913
12.989999999999915 -1894.8187842298148
13.019999999999914 -1935.4175869876203
13.049999999999914 -1949.6110327039846
13.079999999999913 -1940.3939945029547
13.109999999999912 -1912.8751810142796
13.139999999999912 -1873.616801786091
13.169999999999911 -1829.8895047442659
13.19999999999991 -1788.9203919991132
13.22999999999991 -1757.2433580166862
13.25999999999991 -1740.174360966407
13.289999999999909 -1741.4638651934654
13.319999999999908 -1763.1255459683355
13.349999999999907 -1805.4538821937483
13.379999999999907 -1867.198223622
13.409999999999906 -1945.8426102894246
13.439999999999905 -2037.963877056222
13.469999999999905 -2139.6561691661245
13.499999999999904 -2246.9516309914397
13.529999999999903 -2356.1700082535135
13.559999999999903 -2464.185574485593
13.589999999999902 -2568.558337047921
13.619999999999902 -2667.590714956004
13.6499999999999 -2760.2282865148236
13.6799999999999 -2845.9029553704904
13.7099999999999 -2924.3663890031253
13.739999999999899 -2995.5168039559176
13.769999999999898 -3059.243584923276
13.799999999999898 -3115.364314443781
13.829999999999897 -3163.0102927907124
13.859999999999896 -3200.7796018988984
13.889999999999896 -3227.525868597664
13.919999999999895 -3242.5779914425966
13.949999999999894 -3246.064670839171
13.979999999999894 -3239.0293812552336
14.009999999999893 -3222.77535048179
14.039999999999893 -3198.4744003581527
14.069999999999892 -3166.911478515628
14.099999999999891 -3128.402423122183
14.12999999999989 -3082.7944845892516
14.15999999999989 -3029.44591676223
14.18999999999989 -2967.4494212659592
14.219999999999889 -2895.9535313413194
14.249999999999888 -2814.4756025574075
14.279999999999887 -2723.2215928417418
14.309999999999887 -2623.262229768883
14.339999999999886 -2516.568299176506
14.369999999999886 -2405.849892857685
14.399999999999885 -2294.269023375325
14.429999999999884 -2185.0151648445194
14.459999999999884 -2080.886425732206
14.489999999999883 -1984.016947407927
14.519999999999882 -1895.7754344422879
14.549999999999882 -1816.7545001464875
14.579999999999881 -1746.8113555821465
14.60999999999988 -1685.1088083883856
14.63999999999988 -1630.1936805822802
14.66999999999988 -1580.1648307927367
14.699999999999878 -1532.9507421331587
14.729999999999878 -1486.7034669384266
14.759999999999877 -1440.170165254387
14.789999999999877 -1392.9514702957638
14.819999999999876 -1345.6236691472895
14.849999999999875 -1299.6845560177046
14.879999999999875 -1257.3134833057918
14.909999999999874 -1220.9083017621506
14.939999999999873 -1192.4986648379358
14.969999999999873 -1173.253959149074
14.999999999999872 -1163.2309509131005
15.029999999999871 -1161.478063938405
15.05999999999987 -1166.2872335962588
15.08999999999987 -1175.446361330751
15.11999999999987 -1186.532332829138
15.149999999999869 -1197.1787621925428
15.179999999999868 -1205.2749880512176
15.209999999999868 -1209.1369349866345
15.239999999999867 -1207.5939325822515
15.269999999999866 -1200.0084395206657
15.299999999999866 -1186.2608860908351
15.329999999999865 -1166.7788985489526
15.359999999999864 -1142.5339240983542
15.389999999999864 -1115.0240161956542
15.419999999999863 -1086.1833358755664
15.449999999999863 -1058.1206296842915
15.479999999999862 -1032.9097294928451
15.509999999999861 -1012.385715920849
15.53999999999986 -998.0145118605321
15.56999999999986 -990.7801891172008
15.59999999999986 -991.108236056628
15.629999999999859 -998.8604227385907
15.659999999999858 -1013.3653953056931
15.689999999999857 -1033.5276915485429
15.719999999999857 -1057.9807064220415
15.749999999999856 -1085.1682371131621
15.779999999999855 -1113.5477403120524
15.809999999999855 -1141.964554146966
15.839999999999854 -1169.5819548610127
15.869999999999854 -1195.8203114627565
15.899999999999853 -1220.3874642277203
15.929999999999852 -1243.2509462149517
15.959999999999852 -1264.5557940610142
15.989999999999851 -1284.4900056495467
16.01999999999985 -1303.2223514123298
16.04999999999985 -1320.9169553752965
16.079999999999853 -1337.762960901799
