# Results for "element" with Id # 1095519 for search config "initial" at position: x0: -30.1157894737; y0: 9.38421052632; z0: 167.6667
# time PRESSURE
0.03 1374.273705458727
0.06 3930.073316142826
0.09 7381.739289212663
0.12 11377.146647219146
0.15 15530.728429005718
0.18 19458.62234286658
0.21 22812.590702321584
0.24 25309.875390626024
0.27 26756.53998818667
0.30000000000000004 27062.32453792666
0.33000000000000007 26245.69572953733
0.3600000000000001 24428.63235866692
0.3900000000000001 21821.699076317447
0.42000000000000015 18700.992050395987
0.4500000000000002 15379.43837021976
0.4800000000000002 12175.534773085637
0.5100000000000002 9382.815698506573
0.5400000000000003 7243.120521013776
0.5700000000000003 5926.142397998752
0.6000000000000003 5516.908941456921
0.6300000000000003 6011.908468217385
0.6600000000000004 7323.680463355351
0.6900000000000004 9292.912864489477
0.7200000000000004 11706.510454685922
0.7500000000000004 14319.699351430121
0.7800000000000005 16880.019842410373
0.8100000000000005 19151.008546493715
0.8400000000000005 20933.473978160666
0.8700000000000006 22082.526606659078
0.9000000000000006 22518.927941730915
0.9300000000000006 22233.865868070454
0.9600000000000006 21286.890511885576
0.9900000000000007 19797.422191988968
1.0200000000000007 17930.859325808735
1.0500000000000007 15880.83970091935
1.0800000000000007 13849.542537234813
1.1100000000000008 12028.047225253995
1.1400000000000008 10578.66864384543
1.1700000000000008 9620.89196718045
1.2000000000000008 9222.083939549688
1.2300000000000009 9393.613619473615
1.260000000000001 10092.459589400103
1.290000000000001 11227.850638126236
1.320000000000001 12672.054509979302
1.350000000000001 14274.103234683891
1.380000000000001 15875.050829838614
1.410000000000001 17323.295224166042
1.440000000000001 18488.556138201737
1.470000000000001 19273.27435139063
1.500000000000001 19620.465759417362
1.5300000000000011 19517.4185382945
1.5600000000000012 18995.02032040483
1.5900000000000012 18122.92552229812
1.6200000000000012 17001.17886125519
1.6500000000000012 15749.23587217084
1.6800000000000013 14493.562047468
1.7100000000000013 13355.09084735199
1.7400000000000013 12437.784973195234
1.7700000000000014 11819.377521589457
1.8000000000000014 11545.100687091403
1.8300000000000014 11624.86537185326
1.8600000000000014 12033.99526273675
1.8900000000000015 12717.261079809181
1.9200000000000015 13595.659769823907
1.9500000000000015 14575.154546053334
1.9800000000000015 15556.444716134161
2.0100000000000016 16444.786319168496
2.0400000000000014 17158.92518212186
2.070000000000001 17638.328665432884
2.100000000000001 17848.093353508477
2.130000000000001 17781.154255972007
2.1600000000000006 17457.68876311108
2.1900000000000004 16921.89051313472
2.22 16236.537209278915
2.25 15475.978592742606
2.28 14718.307470281188
2.3099999999999996 14037.524564457695
2.3399999999999994 13496.475162227094
2.369999999999999 13141.221024308903
2.399999999999999 12997.337593891758
2.429999999999999 13068.407070834108
2.4599999999999986 13336.750250670582
2.4899999999999984 13766.212707547467
2.5199999999999982 14306.630541044895
2.549999999999998 14899.456435901588
2.579999999999998 15483.936186958737
2.6099999999999977 16003.203417357823
2.6399999999999975 16409.6960955646
2.6699999999999973 16669.39214905938
2.699999999999997 16764.5001926116
2.729999999999997 16694.40920788299
2.7599999999999967 16474.88408057265
2.7899999999999965 16135.67042709552
2.8199999999999963 15716.825464595355
2.849999999999996 15264.20417158872
2.879999999999996 14824.597507983155
2.9099999999999957 14441.028252786018
2.9399999999999955 14148.669003746292
2.9699999999999953 13971.758987821078
2.999999999999995 13921.774863073628
3.029999999999995 13996.97196507145
3.0599999999999947 14183.266775075863
3.0899999999999945 14456.301326144621
3.1199999999999943 14784.419217981644
3.149999999999994 15132.209694550598
3.179999999999994 15464.235951201506
3.2099999999999937 15748.567327853616
3.2399999999999936 15959.773430458867
3.2699999999999934 16081.109578071095
3.299999999999993 16105.717612577326
3.329999999999993 16036.77241481566
3.3599999999999928 15886.61601199138
3.3899999999999926 15675.018362158162
3.4199999999999924 15426.787667061628
3.449999999999992 15169.004759954434
3.479999999999992 14928.18145149008
3.509999999999992 14727.633714554664
3.5399999999999916 14585.322415900879
3.5699999999999914 14512.353495390133
3.599999999999991 14512.252450511452
3.629999999999991 14581.041861157302
3.659999999999991 14708.068905774617
3.6899999999999906 14877.457616635213
3.7199999999999904 15070.003332855937
3.7499999999999902 15265.294300556536
3.77999999999999 15443.833324674306
3.80999999999999 15588.945599763903
3.8399999999999896 15688.292766878378
3.8699999999999894 15734.862623907098
3.8999999999999893 15727.364017301907
3.929999999999989 15670.021779974053
3.959999999999989 15571.826369872317
3.9899999999999887 15445.3457783757
4.019999999999989 15305.245801303914
4.049999999999989 15166.685193807854
4.079999999999989 15043.756227215057
4.10999999999999 14948.126012884295
4.13999999999999 14888.004518793023
4.16999999999999 14867.524479830416
4.19999999999999 14886.571423524894
4.229999999999991 14941.053541147226
4.259999999999991 15023.558352654272
4.289999999999991 15124.30522772833
4.319999999999991 15232.279538503888
4.349999999999992 15336.422413853357
4.379999999999992 15426.751607589633
4.409999999999992 15495.304171533957
4.439999999999992 15536.816092766354
4.469999999999993 15549.086126820945
4.499999999999993 15533.006426078868
4.529999999999993 15492.277767231099
4.559999999999993 15432.857594800105
4.589999999999994 15362.214042759604
4.619999999999994 15288.47390610334
4.649999999999994 15219.558066992926
4.679999999999994 15162.392634151747
4.709999999999995 15122.271675907778
4.739999999999995 15102.42646839271
4.769999999999995 15103.831841053581
4.799999999999995 15125.253799131975
4.829999999999996 15163.51859106049
4.859999999999996 15213.960755785265
4.889999999999996 15270.993256361424
4.919999999999996 15328.733595059406
4.949999999999997 15381.618584346863
4.979999999999997 15424.946291555152
5.009999999999997 15455.294648315543
5.039999999999997 15470.782121924763
5.069999999999998 15471.154939965954
5.099999999999998 15457.703904755552
5.129999999999998 15433.02979580127
5.159999999999998 15400.692178102832
5.189999999999999 15364.78465302981
5.219999999999999 15329.485004874756
5.249999999999999 15298.627305245973
5.279999999999999 15275.33834880351
5.31 15261.770591359753
5.34 15258.951951380737
5.37 15266.75952841263
5.4 15284.011607582943
5.430000000000001 15308.659948885343
5.460000000000001 15338.056784264672
5.490000000000001 15369.263284937626
5.520000000000001 15399.365686571877
5.550000000000002 15425.766694779373
5.580000000000002 15446.424313518299
5.610000000000002 15460.018038613067
5.640000000000002 15466.030525519673
5.670000000000003 15464.742563166466
5.700000000000003 15457.148011429552
5.730000000000003 15444.803374520123
5.760000000000003 15429.631837508812
5.790000000000004 15413.704473191021
5.820000000000004 15399.02248502875
5.850000000000004 15387.322586254624
5.880000000000004 15379.922621827172
5.910000000000005 15377.62019195857
5.940000000000005 15380.650720884096
5.970000000000005 15388.704742360813
6.000000000000005 15400.99795605989
6.030000000000006 15416.383710273316
6.060000000000006 15433.493156504534
6.090000000000006 15450.887137813537
6.120000000000006 15467.203739763165
6.150000000000007 15481.28735120005
6.180000000000007 15492.287611859963
6.210000000000007 15499.72108111679
6.240000000000007 15503.491980213726
6.270000000000008 15503.873411501125
6.300000000000008 15501.453893179092
6.330000000000008 15497.056657935847
6.360000000000008 15491.641976819978
6.390000000000009 15486.203170066876
6.420000000000009 15481.667239970695
6.450000000000009 15478.809503941617
6.480000000000009 15478.188846835954
6.51000000000001 15480.108741606819
6.54000000000001 15484.606239626313
6.57000000000001 15491.467251369704
6.60000000000001 15500.264953172766
6.6300000000000106 15510.416264938158
6.660000000000011 15521.248971630346
6.690000000000011 15532.072598888342
6.720000000000011 15542.246171095641
6.7500000000000115 15551.23639680411
6.780000000000012 15558.661300584354
6.810000000000012 15564.316676166785
6.840000000000012 15568.183269966108
6.8700000000000125 15570.416137000091
6.900000000000013 15571.318522422489
6.930000000000013 15571.303027938446
6.960000000000013 15570.84535145549
6.9900000000000135 15570.435095959472
7.020000000000014 15570.528222081095
7.050000000000014 15571.505837666176
7.080000000000014 15573.642416502553
7.1100000000000145 15577.086170380007
7.140000000000015 15581.852738001933
7.170000000000015 15587.831415357312
7.200000000000015 15594.802956205282
7.2300000000000155 15602.466503255382
7.260000000000016 15610.472667661183
7.290000000000016 15618.459342337552
7.320000000000016 15626.086856928629
7.3500000000000165 15633.069005765485
7.380000000000017 15639.197423428865
7.410000000000017 15644.357331972578
7.440000000000017 15648.533709991529
7.4700000000000175 15651.807723048227
7.500000000000018 15654.34427267171
7.530000000000018 15656.372053994608
7.560000000000018 15658.158463773438
7.5900000000000185 15659.981971427618
7.620000000000019 15662.104681541632
7.650000000000019 15664.747757484774
7.680000000000019 15668.071812053528
7.7100000000000195 15672.163906666254
7.74000000000002 15677.032061828602
7.77000000000002 15682.607809785459
7.80000000000002 15688.755958432099
7.8300000000000205 15695.290542859355
7.860000000000021 15701.995253530515
7.890000000000021 15708.646031525717
7.920000000000021 15715.033442431803
7.9500000000000215 15720.982988550983
7.980000000000022 15726.371076359688
8.010000000000021 15731.135588086403
8.04000000000002 15735.279779776247
8.07000000000002 15738.869398801904
8.10000000000002 15742.023862209973
8.130000000000019 15744.902227732564
8.160000000000018 15747.685568689572
8.190000000000017 15750.557818694608
8.220000000000017 15753.686882288635
8.250000000000016 15757.208080572324
8.280000000000015 15761.21148151972
8.310000000000015 15765.734341873445
8.340000000000014 15770.759196406934
8.370000000000013 15776.217533513049
8.400000000000013 15781.99881088674
8.430000000000012 15787.963421217213
8.460000000000012 15793.958310337108
8.49000000000001 15799.8333045354
8.52000000000001 15805.456828719623
8.55000000000001 15810.729142678374
8.580000000000009 15815.591555236026
8.610000000000008 15820.031395983664
8.640000000000008 15824.081678897885
8.670000000000007 15827.815690042029
8.700000000000006 15831.337667252275
8.730000000000006 15834.770570325989
8.760000000000005 15838.24234730285
8.790000000000004 15841.87239098272
8.820000000000004 15845.758922640498
8.850000000000003 15849.969251211372
8.880000000000003 15854.533787395892
8.910000000000002 15859.44424403332
8.940000000000001 15864.656014680288
8.97 15870.094606051505
9.0 15875.664907978546
9.03 15881.262131549098
9.059999999999999 15886.783407550382
9.089999999999998 15892.138881587754
9.119999999999997 15897.261291247934
9.149999999999997 15902.112643250379
9.179999999999996 15906.68716236
9.209999999999996 15911.010445848617
9.239999999999995 15915.13522861915
9.269999999999994 15919.134861924584
9.299999999999994 15923.094796824967
9.329999999999993 15927.10261488636
9.359999999999992 15931.238631759163
9.389999999999992 15935.567386150906
9.419999999999991 15940.131155602334
9.44999999999999 15944.946276879644
9.47999999999999 15950.002599900989
9.50999999999999 15955.26569242229
9.539999999999988 15960.681884801841
9.569999999999988 15966.185241724243
9.599999999999987 15971.70566406077
9.629999999999987 15977.177005238163
9.659999999999986 15982.543908677013
9.689999999999985 15987.767197951445
9.719999999999985 15992.827669675473
9.749999999999984 15997.727548396739
9.779999999999983 16002.489698937285
9.809999999999983 16007.153716921595
9.839999999999982 16011.770471849302
9.869999999999981 16016.395880375228
9.89999999999998 16021.08455651987
9.92999999999998 16025.883919026215
9.95999999999998 16030.82897008605
9.989999999999979 16035.938827193395
10.019999999999978 14810.580376339358
10.049999999999978 11976.25151560525
10.079999999999977 7990.214158036088
10.109999999999976 3415.7079266606734
10.139999999999976 -1152.6406155197449
10.169999999999975 -5163.264711634145
10.199999999999974 -8171.2819697865925
10.229999999999974 -9884.138249306267
10.259999999999973 -10185.326905307358
10.289999999999973 -9135.258684339604
10.319999999999972 -6951.148952724204
10.349999999999971 -3969.969113840079
10.37999999999997 -600.0918673299984
10.40999999999997 2731.9502812089586
10.43999999999997 5633.138820181581
10.469999999999969 7788.2415166484225
10.499999999999968 8992.029902985374
10.529999999999967 9166.40542075326
10.559999999999967 8361.247519249702
10.589999999999966 6739.8468417892645
10.619999999999965 4551.556872413115
10.649999999999965 2095.818849516927
10.679999999999964 -317.42582536877865
10.709999999999964 -2405.7654320295096
10.739999999999963 -3946.176038253896
10.769999999999962 -4797.24511985137
10.799999999999962 -4909.819255851017
10.829999999999961 -4325.725856900808
10.85999999999996 -3165.7693177927326
10.88999999999996 -1609.3098858224757
10.919999999999959 131.42561130433697
10.949999999999958 1838.8529490525539
10.979999999999958 3315.9868055666975
11.009999999999957 4407.9386341512145
11.039999999999957 5016.787055082572
11.069999999999956 5108.602525044303
11.099999999999955 4712.396409911521
11.129999999999955 3911.7731854276826
11.159999999999954 2830.818484144568
11.189999999999953 1616.37205895523
11.219999999999953 419.06653220248205
11.249999999999952 -624.5245379139569
11.279999999999951 -1406.6206597536698
11.30999999999995 -1858.3803407537234
11.33999999999995 -1954.6678612467174
11.36999999999995 -1713.3398291076594
11.399999999999949 -1189.6203608828432
11.429999999999948 -466.6242601669543
11.459999999999948 356.5319791926954
11.489999999999947 1177.4562282212705
11.519999999999946 1902.5036864044437
11.549999999999946 2456.7709678534748
11.579999999999945 2791.0839430883298
11.609999999999944 2885.435372611677
11.639999999999944 2748.7815499749813
11.669999999999943 2415.5453665741397
11.699999999999942 1939.5076458909957
11.729999999999942 1386.0243829838168
11.759999999999941 823.6089914099416
11.78999999999994 315.8953226566978
11.81999999999994 -85.1314205154089
11.84999999999994 -343.9806625968549
11.879999999999939 -444.19991063967825
11.909999999999938 -388.53787751522884
11.939999999999937 -196.9250535752583
11.969999999999937 97.30072833323035
11.999999999999936 452.33233273952203
12.029999999999935 823.3284736515031
12.059999999999935 1167.687679757733
12.089999999999934 1449.5813588939043
12.119999999999933 1643.3066618860794
12.149999999999933 1735.196209838215
12.179999999999932 1724.013063732076
12.209999999999932 1619.9324909773354
12.239999999999931 1442.3608206225692
12.26999999999993 1216.947863957507
12.29999999999993 972.2019606056331
12.329999999999929 736.1166391161894
12.359999999999928 533.1796234476896
12.389999999999928 382.052862860548
12.419999999999927 294.11016875219315
12.449999999999926 272.90622514064205
12.479999999999926 314.54223435084504
12.509999999999925 408.79916695319434
12.539999999999925 540.8363100590076
12.569999999999924 693.2149962340636
12.599999999999923 847.9942898997797
12.629999999999923 988.6684904496849
12.659999999999922 1101.7545909300766
12.689999999999921 1177.9010671491603
12.71999999999992 1212.4527059630204
12.74999999999992 1205.4704299704583
12.77999999999992 1161.2658490298998
12.809999999999919 1087.5489939756505
12.839999999999918 994.315785668246
12.869999999999918 892.6182301942711
12.899999999999917 793.3532608447274
12.929999999999916 706.1886690788601
12.959999999999916 638.7195315865162
12.989999999999915 595.9136872614563
13.019999999999914 579.8686766652194
13.049999999999914 589.8731626030454
13.079999999999913 622.7328184834865
13.109999999999912 673.3031149437471
13.139999999999912 735.1553265690552
13.169999999999911 801.2976629313268
13.19999999999991 864.8829123832552
13.22999999999991 919.8400176132077
13.25999999999991 961.3799332641738
13.289999999999909 986.3413058478051
13.319999999999908 993.3603701543974
13.349999999999907 982.8664144177155
13.379999999999907 956.9146647356499
13.409999999999906 918.884762675055
13.439999999999905 873.0810476858146
13.469999999999905 824.2751525607438
13.499999999999904 777.2374749827352
13.529999999999903 736.2972985438921
13.559999999999903 704.9686368270535
13.589999999999902 685.6664142085796
13.619999999999902 679.5351526306429
13.6499999999999 686.4000283620749
13.6799999999999 704.8438970846325
13.7099999999999 732.3950960220682
13.739999999999899 765.8046294110852
13.769999999999898 801.3879565980658
13.799999999999898 835.3962040851189
13.829999999999897 864.3801146737675
13.859999999999896 885.5179585226731
13.889999999999896 896.8715064952302
13.919999999999895 897.5496619377643
13.949999999999894 887.7647216586296
13.979999999999894 868.7787867876824
14.009999999999893 842.743790222142
14.039999999999893 812.4558716768437
14.069999999999892 781.0570983946585
14.099999999999891 751.7033004527606
14.12999999999989 727.2364874421231
14.15999999999989 709.9016414964594
14.18999999999989 701.1307470108572
14.219999999999889 701.4180620272257
14.249999999999888 710.2991435082458
14.279999999999887 726.4278461587654
14.309999999999887 747.7405223576019
14.339999999999886 771.6930214716665
14.369999999999886 795.5474136401402
14.399999999999885 816.6723562355485
14.429999999999884 832.8223447894695
14.459999999999884 842.3693164475396
14.489999999999883 844.458906791777
14.519999999999882 839.077272595036
14.549999999999882 827.0261920480814
14.579999999999881 809.8116538126969
14.60999999999988 789.4580019241316
14.63999999999988 768.2694645047409
14.66999999999988 748.5681782442989
14.699999999999878 732.4386893926413
14.729999999999878 721.507426122768
14.759999999999877 716.7790670377269
14.789999999999877 718.5469799913365
14.819999999999876 726.386445079869
14.849999999999875 739.2268278864649
14.879999999999875 755.4922272251496
14.909999999999874 773.2936739911399
14.939999999999873 790.6503094987188
14.969999999999873 805.7134430345423
14.999999999999872 816.9657404706279
15.029999999999871 823.3758237663709
15.05999999999987 824.4935560285257
15.08999999999987 820.4764170052835
15.11999999999987 812.0473442473512
15.149999999999869 800.3917264366141
15.179999999999868 787.0074023179488
15.209999999999868 773.5241742108547
15.239999999999867 761.5150841205088
15.269999999999866 752.32170159723
15.299999999999866 746.9126063864838
15.329999999999865 745.7895235388769
15.359999999999864 748.9501729752328
15.389999999999864 755.9091153892589
15.419999999999863 765.7730730440037
15.449999999999863 777.3616963869448
15.479999999999862 789.354054535164
15.509999999999861 800.4427513325452
15.53999999999986 809.4787660864208
15.56999999999986 815.5929192949555
15.59999999999986 818.2789846845623
15.629999999999859 817.4319468429519
15.659999999999858 813.3420920809349
15.689999999999857 806.6428157822488
15.719999999999857 798.2234677311064
15.749999999999856 789.1171631845554
15.779999999999855 780.3787602693545
15.809999999999855 772.967876006489
15.839999999999854 767.6448242178437
15.869999999999854 764.8927598003593
15.899999999999853 764.8752254537412
15.929999999999852 767.4363006042173
15.959999999999852 772.1324778942853
15.989999999999851 778.2966095010106
16.01999999999985 785.1267855150675
16.04999999999985 791.7862833317406
16.079999999999853 797.5004187073771
16.109999999999854 801.6404936942281
16.139999999999855 803.7861471522917
16.169999999999856 803.7620661292992
16.199999999999857 801.644258563472
16.22999999999986 797.7378645905826
16.25999999999986 792.5325316849762
16.28999999999986 786.6382963339759
