# Results for "element" with Id # 2018504 for search config "initial" at position: x0: -26.9263157895; y0: 12.5736842105; z0: 167.6667
# time PRESSURE
0.03 1372.7516170844965
0.06 3925.70548015353
0.09 7373.503165821901
0.12 11364.396310074218
0.15 15513.236299560867
0.18 19436.584931365425
0.21 22786.59906332559
0.24 25280.853161740124
0.27 26725.653808249583
0.30000000000000004 27030.87352368567
0.33000000000000007 26214.988884856914
0.3600000000000001 24399.864396702167
0.3900000000000001 21795.83618481075
0.42000000000000015 18678.679581076707
0.4500000000000002 15360.941023674422
0.4800000000000002 12160.716985407917
0.5100000000000002 9371.165308384056
0.5400000000000003 7233.813064641718
0.5700000000000003 5918.13786402856
0.6000000000000003 5509.068303042896
0.6300000000000003 6003.115743778209
0.6600000000000004 7312.956357234905
0.6900000000000004 9279.509003424573
0.7200000000000004 11689.976314107555
0.7500000000000004 14299.917552503523
0.7800000000000005 16857.208074561826
0.8100000000000005 19125.688398683094
0.8400000000000005 20906.408921452166
0.8700000000000006 22054.633733439572
0.9000000000000006 22491.171560241473
0.9300000000000006 22207.144299402324
0.9600000000000006 21261.93039274819
0.9900000000000007 19774.695008622995
1.0200000000000007 17910.532466444165
1.0500000000000007 15862.769195507999
1.0800000000000007 13833.307515217934
1.1100000000000008 12013.0192867388
1.1400000000000008 10564.104128611014
1.1700000000000008 9606.03268164928
1.2000000000000008 9206.251894281426
1.2300000000000009 9376.287946315972
1.260000000000001 10073.327124347143
1.290000000000001 11206.825944365899
1.320000000000001 12649.269065021599
1.350000000000001 14249.867272637115
1.380000000000001 15849.794798972225
1.410000000000001 17297.500346093522
1.440000000000001 18462.68488831223
1.470000000000001 19247.71120687709
1.500000000000001 19595.47653926269
1.5300000000000011 19493.13268442695
1.5600000000000012 18971.43614912958
1.5900000000000012 18099.934307269148
1.6200000000000012 16978.6005752475
1.6500000000000012 15726.85844253303
1.6800000000000013 14471.176692785066
1.7100000000000013 13332.518092966611
1.7400000000000013 12414.888810509963
1.7700000000000014 11796.068050646916
1.8000000000000014 11521.327665210683
1.8300000000000014 11600.606603264108
1.8600000000000014 12009.24391825683
1.8900000000000015 12692.015499209348
1.9200000000000015 13569.918037738744
1.9500000000000015 14548.914536794045
1.9800000000000015 15529.708720347468
2.0100000000000016 16417.568279905063
2.0400000000000014 17131.25793273772
2.070000000000001 17610.26855701411
2.100000000000001 17819.720433957962
2.130000000000001 17752.567070067038
2.1600000000000006 17428.99419878528
2.1900000000000004 16893.190216428295
2.22 16207.912888336852
2.25 15447.478901081326
2.28 14689.938860844033
2.3099999999999996 14009.247910978283
2.3399999999999994 13468.208826912327
2.369999999999999 13112.850043469887
2.399999999999999 12968.72755357362
2.429999999999999 13039.42066494779
2.4599999999999986 13307.264101907558
2.4899999999999984 13736.132124723415
2.5199999999999982 14275.900312498898
2.549999999999998 14868.066355284715
2.579999999999998 15451.92082865749
2.6099999999999977 15970.63637937265
2.6399999999999975 16376.679696990357
2.6699999999999973 16636.044059278425
2.699999999999997 16730.9387592603
2.729999999999997 16660.739366175967
2.7599999999999967 16441.18552321921
2.7899999999999965 16101.989353443814
2.8199999999999963 15683.170698096246
2.849999999999996 15230.547873429166
2.879999999999996 14790.880101203724
2.9099999999999957 14407.166738613505
2.9399999999999955 14114.56743880681
2.9699999999999953 13937.3197493793
2.999999999999995 13886.909359793637
3.029999999999995 13961.6095902253
3.0599999999999947 14147.361235252536
3.0899999999999945 14419.83384060546
3.1199999999999943 14747.39849413976
3.149999999999994 15094.668925583588
3.179999999999994 15426.22740270636
3.2099999999999937 15710.155241790277
3.2399999999999936 15921.026134966753
3.2699999999999934 16042.091679996118
3.299999999999993 16066.483061808458
3.329999999999993 15997.359120119274
3.3599999999999928 15847.04246085753
3.3899999999999926 15635.28248597488
3.4199999999999924 15386.867942251065
3.449999999999992 15128.86331800836
3.479999999999992 14887.768780780993
3.509999999999992 14686.894357571964
3.5399999999999916 14544.201025838958
3.5699999999999914 14470.800574092094
3.599999999999991 14470.229139163057
3.629999999999991 14538.523315278024
3.659999999999991 14665.045955193245
3.6899999999999906 14833.93660226259
3.7199999999999904 15026.004244066096
3.7499999999999902 15220.84751751462
3.77999999999999 15398.97540609237
3.80999999999999 15543.714660422564
3.8399999999999896 15642.723966224723
3.8699999999999894 15688.98425703124
3.8999999999999893 15681.1946277757
3.929999999999989 15623.56853212734
3.959999999999989 15525.084772338652
3.9899999999999887 15398.300705711441
4.019999999999989 15257.873608060956
4.049999999999989 15118.956617429205
4.079999999999989 14995.639708776162
4.10999999999999 14899.591050101677
4.13999999999999 14839.02469182774
4.16999999999999 14818.079849820373
4.19999999999999 14836.65007987434
4.229999999999991 14890.652190805326
4.259999999999991 14972.681929274282
4.289999999999991 15072.965640967512
4.319999999999991 15180.493758967768
4.349999999999992 15284.210135824014
4.379999999999992 15374.13275385061
4.409999999999992 15442.296531310561
4.439999999999992 15483.433335400408
4.469999999999993 15495.336384412549
4.499999999999993 15478.891572886769
4.529999999999993 15437.79342128594
4.559999999999993 15377.993812190753
4.589999999999994 15306.956574897602
4.619999999999994 15232.805859291675
4.649999999999994 15163.461759264153
4.679999999999994 15105.85143809402
4.709999999999995 15065.271634034016
4.739999999999995 15044.957522543975
4.769999999999995 15045.888557943646
4.799999999999995 15066.83554315281
4.829999999999996 15104.629154294433
4.859999999999996 15154.607518638215
4.889999999999996 15211.186002514733
4.919999999999996 15268.483129701342
4.949999999999997 15320.9353239996
4.979999999999997 15363.838988966989
5.009999999999997 15393.769387493085
5.039999999999997 15408.841689490215
5.069999999999998 15408.798601826555
5.099999999999998 15394.927594543771
5.129999999999998 15369.826693848536
5.159999999999998 15337.053557244875
5.189999999999999 15300.70087298101
5.219999999999999 15264.946555212116
5.249999999999999 15233.625758969734
5.279999999999999 15209.867132873247
5.31 15195.825494570168
5.34 15192.531386920497
5.37 15199.864473809099
5.4 15216.645226469283
5.430000000000001 15240.826974054347
5.460000000000001 15269.762810712533
5.490000000000001 15300.514005742249
5.520000000000001 15330.166173659047
5.550000000000002 15356.120796276815
5.580000000000002 15376.3341818802
5.610000000000002 15389.483951144388
5.640000000000002 15395.050987456823
5.670000000000003 15393.314581019067
5.700000000000003 15385.267471260435
5.730000000000003 15372.4654785542
5.760000000000003 15356.831606173751
5.790000000000004 15340.437251191932
5.820000000000004 15325.284373710943
5.850000000000004 15313.110864470336
5.880000000000004 15305.235991415111
5.910000000000005 15302.458785168283
5.940000000000005 15305.015936236288
5.970000000000005 15312.59896135599
6.000000000000005 15324.424162833211
6.030000000000006 15339.345071861644
6.060000000000006 15355.992606759624
6.090000000000006 15372.92702362829
6.120000000000006 15388.785584105943
6.150000000000007 15402.41173762114
6.180000000000007 15412.954155081079
6.210000000000007 15419.928532661987
6.240000000000007 15423.238394546253
6.270000000000008 15423.156405951178
6.300000000000008 15420.270976852296
6.330000000000008 15415.405505547356
6.360000000000008 15409.520662555902
6.390000000000009 15403.610333292858
6.420000000000009 15398.602197708002
6.450000000000009 15395.272292986767
6.480000000000009 15394.180168424846
6.51000000000001 15395.629831300099
6.54000000000001 15399.65866505066
6.57000000000001 15406.05267154882
6.60000000000001 15414.384904680668
6.6300000000000106 15424.072021882203
6.660000000000011 15434.44140898348
6.690000000000011 15444.802088683497
6.720000000000011 15454.512555399728
6.7500000000000115 15463.039016079145
6.780000000000012 15469.999080895404
6.810000000000012 15475.188283095782
6.840000000000012 15478.587262595976
6.8700000000000125 15480.351111527665
6.900000000000013 15480.783239424833
6.930000000000013 15480.296520125281
6.960000000000013 15479.366997709645
6.9900000000000135 15478.484650863424
7.020000000000014 15478.105798344079
7.050000000000014 15478.611815973192
7.080000000000014 15480.277323489317
7.1100000000000145 15483.250552541695
7.140000000000015 15487.547046643218
7.170000000000015 15493.055917463795
7.200000000000015 15499.55765394583
7.2300000000000155 15506.751071934956
7.260000000000016 15514.286439599058
7.290000000000016 15521.801338534595
7.320000000000016 15528.955864379004
7.3500000000000165 15535.463666296355
7.380000000000017 15541.116308270042
7.410000000000017 15545.799019209437
7.440000000000017 15549.496845071128
7.4700000000000175 15552.291072592685
7.500000000000018 15554.346773270732
7.530000000000018 15555.892833079124
7.560000000000018 15557.19682216893
7.5900000000000185 15558.537325321711
7.620000000000019 15560.176484089174
7.650000000000019 15562.335427544693
7.680000000000019 15565.174692286777
7.7100000000000195 15568.781238798714
7.74000000000002 15573.162948059427
7.77000000000002 15578.251190674868
7.80000000000002 15583.91059771269
7.8300000000000205 15589.955052488844
7.860000000000021 15596.168150701214
7.890000000000021 15602.325787795686
7.920000000000021 15608.218505847219
7.9500000000000215 15613.671810171134
7.980000000000022 15618.562127345558
8.010000000000021 15622.827398540696
8.04000000000002 15626.470973833415
8.07000000000002 15629.558705426565
8.10000000000002 15632.210125438569
8.130000000000019 15634.584394580768
8.160000000000018 15636.862645411895
8.190000000000017 15639.228830965996
8.220000000000017 15641.850845863524
8.250000000000016 15644.863983258587
8.280000000000015 15648.358264269684
8.310000000000015 15652.370888478657
8.340000000000014 15656.88433435258
8.370000000000013 15661.830023894083
8.400000000000013 15667.097355307018
8.430000000000012 15672.546685737354
8.460000000000012 15678.024944741934
8.49000000000001 15683.381945390804
8.52000000000001 15688.486081121822
8.55000000000001 15693.237577414726
8.580000000000009 15697.57768545324
8.610000000000008 15701.49372172353
8.640000000000008 15705.018750403342
8.670000000000007 15708.226086212571
8.700000000000006 15711.21993028813
8.730000000000006 15714.123130240938
8.760000000000005 15717.06347295779
8.790000000000004 15720.160187917974
8.820000000000004 15723.511326009406
8.850000000000003 15727.184015785577
8.880000000000003 15731.208489669385
8.910000000000002 15735.576295117411
8.940000000000001 15740.242678266297
8.97 15745.133075719885
9.0 15750.152385061427
9.03 15755.195837725996
9.059999999999999 15760.1605429641
9.089999999999998 15764.956573811116
9.119999999999997 15769.516638788686
9.149999999999997 15773.80277456145
9.179999999999996 15777.809265328162
9.209999999999996 15781.56175965447
9.239999999999995 15785.112994776018
9.269999999999994 15788.536340204826
9.299999999999994 15791.917318054002
9.329999999999993 15795.343626568207
9.359999999999992 15798.895760032272
9.389999999999992 15802.6384376917
9.419999999999991 15806.614084552159
9.44999999999999 15810.839155359829
9.47999999999999 15815.30361450002
9.50999999999999 15819.973144945412
9.539999999999988 15824.794223992969
9.569999999999988 15829.701135697289
9.599999999999987 15834.624028893668
9.629999999999987 15839.497046756527
9.659999999999986 15844.265121140299
9.689999999999985 15848.8893307479
9.719999999999985 15853.350696634396
9.749999999999984 15857.651654973513
9.779999999999983 15861.815269972914
9.809999999999983 15865.881307357502
9.839999999999982 15869.900754276696
9.869999999999981 15873.929606218417
9.89999999999998 15878.02255785816
9.92999999999998 15882.227093036183
9.95999999999998 15886.578200904962
9.989999999999979 15891.0948896733
10.019999999999978 14667.09654731025
10.049999999999978 11836.56938218373
10.079999999999977 7855.849551757681
10.109999999999976 3287.1289204837576
10.139999999999976 -1275.9117201544545
10.169999999999975 -5282.390638711115
10.199999999999974 -8287.780592522613
10.229999999999974 -9999.570190468978
10.259999999999973 -10301.060382431277
10.289999999999973 -9252.334140431367
10.319999999999972 -7070.23345388422
10.349999999999971 -4091.3703114572586
10.37999999999997 -723.7998236695223
10.40999999999997 2606.214596701199
10.43999999999997 5505.875079839863
10.469999999999969 7660.116735387221
10.499999999999968 8863.81175406847
10.529999999999967 9038.878737468365
10.559999999999967 8235.119173438909
10.589999999999966 6615.653131941208
10.619999999999965 4429.590938329472
10.649999999999965 1976.0929919235032
10.679999999999964 -435.1744074756992
10.709999999999964 -2522.0266343761486
10.739999999999963 -4061.5860364264495
10.769999999999962 -4912.487681305418
10.799999999999962 -5025.526084842433
10.829999999999961 -4442.391752071
10.85999999999996 -3283.693794068966
10.88999999999996 -1728.5717946633147
10.919999999999959 10.95971094613983
10.949999999999958 1717.4907970922459
10.979999999999958 3194.1509684417706
11.009999999999957 4286.096372588942
11.039999999999957 4895.38056065819
11.069999999999956 4987.98911314695
11.099999999999955 4592.806195124634
11.129999999999955 3793.2878897313412
11.159999999999954 2713.372033127216
11.189999999999953 1499.7705869557271
11.219999999999953 303.02326119258663
11.249999999999952 -740.345589397276
11.279999999999951 -1522.558503077215
11.30999999999995 -1974.7348115295663
11.33999999999995 -2071.666254028127
11.36999999999995 -1831.116091243613
11.399999999999949 -1308.20815771011
11.429999999999948 -585.9636780896747
11.459999999999948 236.5763113713639
11.489999999999947 1057.0690754960804
11.519999999999946 1781.8891709792551
11.549999999999946 2336.122741729183
11.579999999999945 2670.559354881507
11.609999999999944 2765.1364029177043
11.639999999999944 2628.74453218006
11.669999999999943 2295.7398363687516
11.699999999999942 1819.8439369687283
11.729999999999942 1266.368169714278
11.759999999999941 703.8004828624008
11.78999999999994 195.77037577603653
11.81999999999994 -205.72119903878763
11.84999999999994 -465.15128890335535
11.879999999999939 -566.023711825189
11.909999999999938 -511.03853313974787
11.939999999999937 -320.0791145320287
11.969999999999937 -26.443544853908264
11.999999999999936 328.08921338750895
12.029999999999935 698.6919421375554
12.059999999999935 1042.7625811563332
12.089999999999934 1324.4587809996647
12.119999999999933 1518.0537362004247
12.149999999999933 1609.849904280205
12.179999999999932 1598.5785330669385
12.209999999999932 1494.385698040797
12.239999999999931 1316.6548612100787
12.26999999999993 1091.0216781823392
12.29999999999993 845.9902432129818
12.329999999999929 609.5595117756197
12.359999999999928 406.2309721445502
12.389999999999928 254.68634844859685
12.419999999999927 166.32227607888436
12.449999999999926 144.71612098538844
12.479999999999926 185.9886355051058
12.509999999999925 279.93483497469043
12.539999999999925 411.72130992002184
12.569999999999924 563.9095927656241
12.599999999999923 718.5524263413886
12.629999999999923 859.1325729486452
12.659999999999922 972.1520516867469
12.689999999999921 1048.2429966673024
12.71999999999992 1082.7345918694225
12.74999999999992 1075.6746842642265
12.77999999999992 1031.3660221868365
12.809999999999919 957.5148896651186
12.839999999999918 864.1185233835005
12.869999999999918 762.2346201667648
12.899999999999917 662.7689448998258
12.929999999999916 575.3997945562066
12.959999999999916 507.73287041869895
12.989999999999915 464.74555045938524
13.019999999999914 448.5426829815672
13.049999999999914 458.41739992601055
13.079999999999913 491.17677605000995
13.109999999999912 541.6748894006729
13.139999999999912 603.47932662826
13.169999999999911 669.5923874564348
13.19999999999991 733.1592944881467
13.22999999999991 788.1007434732555
13.25999999999991 829.6200008599855
13.289999999999909 854.5496642129402
13.319999999999908 861.5222489086891
13.349999999999907 850.9661535203525
13.379999999999907 824.9383579759512
13.409999999999906 786.8222334395914
13.439999999999905 740.9267195222103
13.469999999999905 692.0276920169117
13.499999999999904 644.8989663606101
13.529999999999903 603.8722451963157
13.559999999999903 572.4632718119575
13.589999999999902 553.0879019383008
13.619999999999902 546.8903845455923
13.6499999999999 553.6941537900115
13.6799999999999 572.079239810878
13.7099999999999 599.5704430391451
13.739999999999899 632.914697618743
13.769999999999898 668.423491487421
13.799999999999898 702.3446726160846
13.829999999999897 731.2265099570437
13.859999999999896 752.246122051737
13.889999999999896 763.4654945366447
13.919999999999895 763.9949850021076
13.949999999999894 754.0492015209865
13.979999999999894 734.8933149101048
14.009999999999893 708.6823601058221
14.039999999999893 678.2148613503288
14.069999999999892 646.635248960822
14.099999999999891 617.1014585447991
14.12999999999989 592.4565646049701
14.15999999999989 574.9458730690611
14.18999999999989 566.001201451925
14.219999999999889 566.1166916923281
14.249999999999888 574.8285478069363
14.279999999999887 590.7921460725132
14.309999999999887 611.9456076204733
14.339999999999886 635.7463198396631
14.369999999999886 659.4579123767751
14.399999999999885 680.4508815110433
14.429999999999884 696.4818642299756
14.459999999999884 705.9253493116615
14.489999999999883 707.9295458323661
14.519999999999882 702.4827560779065
14.549999999999882 690.3883260915609
14.579999999999881 673.1531590232561
14.60999999999988 652.8018994570078
14.63999999999988 631.6384177369612
14.66999999999988 611.9839547912671
14.699999999999878 595.9215753095609
14.729999999999878 585.0758262671503
14.759999999999877 580.4492260714776
14.789999999999877 582.3329240765376
14.819999999999876 590.3003080018827
14.849999999999875 603.2792748065458
14.879999999999875 619.6928245632624
14.909999999999874 637.6511072549745
14.939999999999873 655.1726247657555
14.969999999999873 670.4083985893272
14.999999999999872 681.8410419884137
15.029999999999871 688.4391958986853
15.05999999999987 689.7524898094169
15.08999999999987 685.9378986235047
15.11999999999987 677.7174447335742
15.149999999999869 666.2753812101977
15.179999999999868 653.1085190988931
15.209999999999868 639.8458923881175
15.239999999999867 628.0600785429252
15.269999999999866 619.0922939491874
15.299999999999866 613.9105561335599
15.329999999999865 613.0156482081213
15.359999999999864 616.4038638550851
15.389999999999864 623.5877021531057
15.419999999999863 633.671707886353
15.449999999999863 645.4739783294236
15.479999999999862 657.6730616243739
15.509999999999861 668.9619210616498
15.53999999999986 678.192344278192
15.56999999999986 684.4959197276916
15.59999999999986 687.3668605785795
15.629999999999859 686.6999793168465
15.659999999999858 682.7851783935033
15.689999999999857 676.2551600205057
15.719999999999857 667.9984918171892
15.749999999999856 659.0476135561962
15.779999999999855 650.4571083795662
15.809999999999855 643.1873719876191
15.839999999999854 638.0002121504069
15.869999999999854 635.3802838335768
15.899999999999853 635.4921859542393
15.929999999999852 638.1809882370025
15.959999999999852 643.0037226392486
15.989999999999851 649.293365912284
16.01999999999985 656.2482830705189
16.04999999999985 663.0326515307971
16.079999999999853 668.8732085358034
16.109999999999854 673.1428733701437
16.139999999999855 675.4225387422288
16.169999999999856 675.5376073856191
16.199999999999857 673.5640180054183
16.22999999999986 669.8062492312877
16.25999999999986 664.7529905006745
16.28999999999986 659.013193005794
