# Results for "element" with Id # 25681 for search config "initial" at position: x0: -34.9; y0: 4.6; z0: 167.6667
# time PRESSURE
0.03 1376.2184329290199
0.06 3935.6150955273392
0.09 7392.118103140221
0.12 11393.104388436961
0.15 15552.465303341396
0.18 19485.798177274577
0.21 22844.371644525923
0.24 25345.02385940025
0.27 26793.5417868677
0.30000000000000004 27099.54246997446
0.33000000000000007 26281.534538751395
0.3600000000000001 24461.697734010566
0.3900000000000001 21850.93363965104
0.42000000000000015 18725.773335855814
0.4500000000000002 15399.628453893802
0.4800000000000002 12191.476804610895
0.5100000000000002 9395.279021837985
0.5400000000000003 7253.2024064744055
0.5700000000000003 5935.139297152353
0.6000000000000003 5526.173639289488
0.6300000000000003 6022.709205341649
0.6600000000000004 7337.076718226528
0.6900000000000004 9309.658130465812
0.7200000000000004 11726.98933063935
0.7500000000000004 14343.902338016018
0.7800000000000005 16907.556873285375
0.8100000000000005 19181.160135797632
0.8400000000000005 20965.27640768724
0.8700000000000006 22114.884508176918
0.9000000000000006 22550.743098684892
0.9300000000000006 22264.167647620212
0.9600000000000006 21314.950416908207
0.9900000000000007 19822.836057454508
1.0200000000000007 17953.584805711525
1.0500000000000007 15901.18379705113
1.0800000000000007 13868.102722042746
1.1100000000000008 12045.617156708362
1.1400000000000008 10596.124383580312
1.1700000000000008 9639.075896992526
1.2000000000000008 9241.702406285644
1.2300000000000009 9415.160206985267
1.260000000000001 10116.17192854478
1.290000000000001 11253.70351521873
1.320000000000001 12699.787779913866
1.350000000000001 14303.278948560019
1.380000000000001 15905.130062485186
1.410000000000001 17353.722473623937
1.440000000000001 18518.838084334267
1.470000000000001 19303.041121998907
1.500000000000001 19649.50599065252
1.5300000000000011 19545.685190414868
1.5600000000000012 19022.609663014387
1.5900000000000012 18150.03648487922
1.6200000000000012 17028.06322855327
1.6500000000000012 15776.149682300424
1.6800000000000013 14520.726823082681
1.7100000000000013 13382.670031188925
1.7400000000000013 12465.876959414421
1.7700000000000014 11848.023042647706
1.8000000000000014 11574.300094812923
1.8300000000000014 11654.599784818238
1.8600000000000014 12064.246017609952
1.8900000000000015 12748.023059528481
1.9200000000000015 13626.946119205313
1.9500000000000015 14606.992686109967
1.9800000000000015 15588.86565012134
2.0100000000000016 16477.810522581334
2.0400000000000014 17192.549045082702
2.070000000000001 17672.51526579754
2.100000000000001 17882.770030725267
2.130000000000001 17816.218201385567
2.1600000000000006 17493.01984915323
2.1900000000000004 16957.36913914721
2.22 16272.063946128324
2.25 15511.49187411292
2.28 14753.796122789503
2.3099999999999996 14073.032764025502
2.3399999999999994 13532.098999614536
2.369999999999999 13177.097167693722
2.399999999999999 13033.626052844975
2.429999999999999 13105.270707565887
2.4599999999999986 13374.334244394653
2.4899999999999984 13804.62695110717
2.5199999999999982 14345.937266531335
2.549999999999998 14939.664613629502
2.579999999999998 15525.003070463885
2.6099999999999977 16045.04274386471
2.6399999999999975 16452.19143957442
2.6699999999999973 16712.41339180866
2.699999999999997 16807.920815678473
2.729999999999997 16738.122086364125
2.7599999999999967 16518.813862038973
2.7899999999999965 16179.78115606336
2.8199999999999963 15761.122904673204
2.849999999999996 15308.732919012245
2.879999999999996 14869.433746750601
2.9099999999999957 14486.26936612495
2.9399999999999955 14194.421637017309
2.9699999999999953 14018.127124610392
2.999999999999995 13968.8492668935
3.029999999999995 14044.82207582642
3.0599999999999947 14231.935678407084
3.0899999999999945 14505.804016986473
3.1199999999999943 14834.743926209325
3.149999999999994 15183.321836692665
3.179999999999994 15516.084000020197
3.2099999999999937 15801.089887942873
3.2399999999999936 16012.906700121574
3.2699999999999934 16134.794480272176
3.299999999999993 16159.906000550047
3.329999999999993 16091.431821418633
3.3599999999999928 15941.73261302178
3.3899999999999926 15730.59794693609
3.4199999999999924 15482.854636310685
3.449999999999992 15225.599287642344
3.479999999999992 14985.35513034093
3.509999999999992 14785.444205602937
3.5399999999999916 14643.827642505476
3.5699999999999914 14571.6060246645
3.599999999999991 14572.294702342906
3.629999999999991 14641.902623700844
3.659999999999991 14769.761489052697
3.6899999999999906 14939.979821648798
3.7199999999999904 15133.339126655135
3.7499999999999902 15329.416934840689
3.77999999999999 15508.709472039329
3.80999999999999 15654.53995310852
3.8399999999999896 15754.572592479522
3.8699999999999894 15801.801766638097
3.8999999999999893 15794.945900938861
3.929999999999989 15738.241165489319
3.959999999999989 15640.689768148992
3.9899999999999887 15514.870543698551
4.019999999999989 15375.45811738269
4.049999999999989 15237.617235710306
4.079999999999989 15115.442867943724
4.10999999999999 15020.601456816352
4.13999999999999 14961.299219889079
4.16999999999999 14941.662646912268
4.19999999999999 14961.569353703115
4.229999999999991 15016.918891125362
4.259999999999991 15100.290412017606
4.289999999999991 15201.896059939303
4.319999999999991 15310.71580160765
4.349999999999992 15415.687640902997
4.379999999999992 15506.82869645146
4.409999999999992 15576.17778263224
4.439999999999992 15618.474712903037
4.469999999999993 15631.523596660998
4.499999999999993 15616.222783681813
4.529999999999993 15576.279385030635
4.559999999999993 15517.656604124786
4.589999999999994 15447.827178553162
4.619999999999994 15374.920911043773
4.649999999999994 15306.859854965225
4.679999999999994 15250.56941354078
4.709999999999995 15211.341265607925
4.739999999999995 15192.402962159902
4.769999999999995 15194.724754384246
4.799999999999995 15217.06775941624
4.829999999999996 15256.253587940191
4.859999999999996 15307.61288937458
4.889999999999996 15365.55586473823
4.919999999999996 15424.198621734613
4.949999999999997 15477.978014006998
4.979999999999997 15522.193490450012
5.009999999999997 15553.425465104632
5.039999999999997 15569.795613333947
5.069999999999998 15571.053709099568
5.099999999999998 15558.494017663736
5.129999999999998 15534.720264827396
5.159999999999998 15503.294157423888
5.189999999999999 15468.310463690614
5.219999999999999 15433.94707122154
5.249999999999999 15404.037160958047
5.279999999999999 15381.70580745463
5.31 15369.103166022636
5.34 15367.254460143526
5.37 15376.034060216232
5.4 15394.257866882625
5.430000000000001 15419.875868554349
5.460000000000001 15450.239198275562
5.490000000000001 15482.408702457562
5.520000000000001 15513.471036802488
5.550000000000002 15540.829971405517
5.580000000000002 15562.44515420902
5.610000000000002 15576.997950083585
5.640000000000002 15583.972791524002
5.670000000000003 15583.65200007249
5.700000000000003 15577.030657455898
5.730000000000003 15565.666135854237
5.760000000000003 15551.482013892884
5.790000000000004 15536.549235286711
5.820000000000004 15522.86839860234
5.850000000000004 15512.175073619146
5.880000000000004 15505.785618676688
5.910000000000005 15504.496109081763
5.940000000000005 15508.5405858864
5.970000000000005 15517.608446944225
6.000000000000005 15530.914617244483
6.030000000000006 15547.31209863928
6.060000000000006 15565.432140518311
6.090000000000006 15583.836082357993
6.120000000000006 15601.162777727335
6.150000000000007 15616.257531530304
6.180000000000007 15628.270991139987
6.210000000000007 15636.72063722209
6.240000000000007 15641.511491642477
6.270000000000008 15642.917202051409
6.300000000000008 15641.526476444145
6.330000000000008 15638.162462531807
6.360000000000008 15633.785100146199
6.390000000000009 15629.387184904444
6.420000000000009 15625.895035148107
6.450000000000009 15624.08320607679
6.480000000000009 15624.509857413705
6.51000000000001 15627.477844115121
6.54000000000001 15633.02381015876
6.57000000000001 15640.933513106065
6.60000000000001 15650.78019513018
6.6300000000000106 15661.980958789145
6.660000000000011 15673.863927615486
6.690000000000011 15685.739107548352
6.720000000000011 15696.966071613391
6.7500000000000115 15707.012090678667
6.780000000000012 15715.495685287999
6.810000000000012 15722.212967714418
6.840000000000012 15727.14483832829
6.8700000000000125 15730.44636038466
6.900000000000013 15732.420657067145
6.930000000000013 15733.480081415255
6.960000000000013 15734.09997139026
6.9900000000000135 15734.769510055632
7.020000000000014 15735.944228536027
7.050000000000014 15738.004900775988
7.080000000000014 15741.225796660903
7.1100000000000145 15745.755053563213
7.140000000000015 15751.608354944627
7.170000000000015 15758.675127357501
7.200000000000015 15766.73635623965
7.2300000000000155 15775.491511748996
7.260000000000016 15784.59157190354
7.290000000000016 15793.674770654945
7.320000000000016 15802.40168674117
7.3500000000000165 15810.486262211143
7.380000000000017 15817.720212994904
7.410000000000017 15823.98876318772
7.440000000000017 15829.276838188587
7.4700000000000175 15833.665482052762
7.500000000000018 15837.31939553066
7.530000000000018 15840.46703094469
7.560000000000018 15843.375555944589
7.5900000000000185 15846.323281333733
7.620000000000019 15849.572251339281
7.650000000000019 15853.343651691755
7.680000000000019 15857.798149282424
7.7100000000000195 15863.022875720904
7.74000000000002 15869.02597684094
7.77000000000002 15875.739151067239
7.80000000000002 15883.027411799412
7.8300000000000205 15890.704968639482
7.860000000000021 15898.555606615957
7.890000000000021 15906.355308561546
7.920000000000021 15913.894681168542
7.9500000000000215 15920.999246120624
7.980000000000022 15927.545420449176
8.010000000000021 15933.471039273241
8.04000000000002 15938.779254000934
8.07000000000002 15943.535685000077
8.10000000000002 15947.85959375896
8.130000000000019 15951.909889653449
8.160000000000018 15955.867552535541
8.190000000000017 15959.916464150758
8.220000000000017 15964.224503992149
8.250000000000016 15968.926981575374
8.280000000000015 15974.113973575044
8.310000000000015 15979.822765622086
8.340000000000014 15986.035931161423
8.370000000000013 15992.685029241957
8.400000000000013 15999.659590504545
8.430000000000012 16006.82004851801
8.460000000000012 16014.013367769378
8.49000000000001 16021.089402260066
8.52000000000001 16027.916643713987
8.55000000000001 16034.395425750205
8.580000000000009 16040.46716130573
8.610000000000008 16046.11920343949
8.640000000000008 16051.384492851616
8.670000000000007 16056.336286764861
8.700000000000006 16061.078893944592
8.730000000000006 16065.735454166917
8.760000000000005 16070.434163659997
8.790000000000004 16075.294643146437
8.820000000000004 16080.415354838022
8.850000000000003 16085.8638750418
8.880000000000003 16091.670891285528
8.910000000000002 16097.828390467555
8.940000000000001 16104.292032973975
8.97 16110.98747880801
9.0 16117.819670341853
9.03 16124.683863517273
9.059999999999999 16131.477313292195
9.089999999999998 16138.11037125842
9.119999999999997 16144.515893556714
9.149999999999997 16150.655918625236
9.179999999999996 16156.524677169811
9.209999999999996 16162.147798070346
9.239999999999995 16167.578130605714
9.269999999999994 16172.889110905533
9.299999999999994 16178.1661757144
9.329999999999993 16183.496818462387
9.359999999999992 16188.961168557604
9.389999999999992 16194.623592405449
9.419999999999991 16200.526258980166
9.44999999999999 16206.685438975965
9.47999999999999 16213.090909226165
9.50999999999999 16219.708152757314
9.539999999999988 16226.483353388352
9.569999999999988 16233.350318327408
9.599999999999987 16240.238646175603
9.629999999999987 16247.08181854718
9.659999999999986 16253.824096959615
9.689999999999985 16260.425944662165
9.719999999999985 16266.8678126399
9.749999999999984 16273.151567096127
9.779999999999983 16279.29970850019
9.809999999999983 16285.35148862141
9.839999999999982 16291.35748608008
9.869999999999981 16297.373358907553
9.89999999999998 16303.453428896115
9.92999999999998 16309.644841551786
9.95999999999998 16315.982449669784
9.989999999999979 16322.485368340884
10.019999999999978 15095.685234535842
10.049999999999978 12256.638108997315
10.079999999999977 8264.144833063237
10.109999999999976 3682.8677116957865
10.139999999999976 -891.5036743146143
10.169999999999975 -4906.7901874535855
10.199999999999974 -7917.905020767397
10.229999999999974 -9632.374758281774
10.259999999999973 -9933.91881133603
10.289999999999973 -8883.211469815269
10.319999999999972 -6697.715585921782
10.349999999999971 -3714.632230499582
10.37999999999997 -342.5707036320468
10.40999999999997 2991.670753415223
10.43999999999997 5894.779770873867
10.469999999999969 8051.232816445532
10.499999999999968 9255.564115811589
10.529999999999967 9429.544286635874
10.559999999999967 8623.062857592533
10.589999999999966 6999.5650652868235
10.619999999999965 4808.67546556235
10.649999999999965 2350.1722032295856
10.679999999999964 -65.66131731826906
10.709999999999964 -2156.1221873873906
10.739999999999963 -3697.9869567060705
10.769999999999962 -4549.756246369937
10.799999999999962 -4662.303526161215
10.829999999999961 -4077.580514145927
10.85999999999996 -2916.585593148864
10.88999999999996 -1358.9085235301368
10.919999999999959 382.99339259639396
10.949999999999958 2091.3356700520117
10.979999999999958 3568.9868968924065
11.009999999999957 4660.980551764806
11.039999999999957 5269.3889876002395
11.069999999999956 5360.342498858085
11.099999999999955 4962.96429365284
11.129999999999955 4161.003993182217
11.159999999999954 3078.7041988762294
11.189999999999953 1863.0525374685972
11.219999999999953 664.8021070127405
11.249999999999952 -379.3937219628305
11.279999999999951 -1161.722560886653
11.30999999999995 -1613.3589212133534
11.33999999999995 -1709.2251359167412
11.36999999999995 -1467.2665035409566
11.399999999999949 -942.8124173865714
11.429999999999948 -219.08414022498027
11.459999999999948 604.7080716772261
11.489999999999947 1426.10187873314
11.519999999999946 2151.412883570513
11.549999999999946 2705.7312385214354
11.579999999999945 3039.9074427784535
11.609999999999944 3133.984459315454
11.639999999999944 2996.985594419193
11.669999999999943 2663.4078171038827
11.699999999999942 2187.1027390926643
11.729999999999942 1633.4850839024039
11.759999999999941 1071.1082278712029
11.78999999999994 563.623207129303
11.81999999999994 163.00920647878058
11.84999999999994 -95.26992905840373
11.879999999999939 -194.80418847190006
11.909999999999938 -138.39395133738438
11.939999999999937 53.97664020067825
11.969999999999937 348.92115432849494
11.999999999999936 704.594193016502
12.029999999999935 1076.1303742812008
12.059999999999935 1420.9200999418147
12.089999999999934 1703.1420116673169
12.119999999999933 1897.1135001005573
12.149999999999933 1989.1966355032166
12.179999999999932 1978.1882772023896
12.209999999999932 1874.297057643223
12.239999999999931 1696.9576636355384
12.26999999999993 1471.8401026549166
12.29999999999993 1227.4626514212418
12.329999999999929 991.8180002849109
12.359999999999928 789.3829385137146
12.389999999999928 638.8003998719928
12.419999999999927 551.4200784620411
12.449999999999926 530.7709649496492
12.479999999999926 572.9305706175137
12.509999999999925 667.6612193972448
12.539999999999925 800.1102620447809
12.569999999999924 952.8347163607264
12.599999999999923 1107.8967761780189
12.629999999999923 1248.8003479977083
12.659999999999922 1362.0769262764165
12.689999999999921 1438.3922935992073
12.71999999999992 1473.1089826921832
12.74999999999992 1466.303973785185
12.77999999999992 1422.3008191378603
12.809999999999919 1348.815952507769
12.839999999999918 1255.845960177835
12.869999999999918 1154.4382796958885
12.899999999999917 1055.4812521390709
12.929999999999916 968.631550912
12.959999999999916 901.4722925060213
12.989999999999915 858.9597895377169
13.019999999999914 843.1819201163015
13.049999999999914 853.4204044989648
13.079999999999913 886.4771657787246
13.109999999999912 937.206979811961
13.139999999999912 999.1831590556683
13.169999999999911 1065.4191167184736
13.19999999999991 1129.0755791532117
13.22999999999991 1184.0910071554415
13.25999999999991 1225.6858112936188
13.289999999999909 1250.7065815247436
13.319999999999908 1257.7950708525764
13.349999999999907 1247.3828759362104
13.379999999999907 1221.5244285595195
13.409999999999906 1183.5961559568673
13.439999999999905 1137.898132023045
13.469999999999905 1089.1981468089732
13.499999999999904 1042.2634462639587
13.529999999999903 1001.4208909609979
13.559999999999903 970.1822688371096
13.589999999999902 950.960838827483
13.619999999999902 944.9008394933497
13.6499999999999 951.8291342050283
13.6799999999999 970.3317384159454
13.7099999999999 997.9411898213881
13.739999999999899 1031.4137053685013
13.769999999999898 1067.0701143664269
13.799999999999898 1101.1662359010643
13.829999999999897 1130.2568540275506
13.859999999999896 1151.522743734342
13.889999999999896 1163.0264804379294
13.919999999999895 1163.8762092767483
13.949999999999894 1154.2823350421816
13.979999999999894 1135.5037756049874
14.009999999999893 1109.6890388458307
14.039999999999893 1079.6315851931786
14.069999999999892 1048.4702097861136
14.099999999999891 1019.3573324094252
14.12999999999989 995.1329028969022
14.15999999999989 978.0407015118737
14.18999999999989 969.5121849936986
14.219999999999889 970.0409634987785
14.249999999999888 979.1607210119676
14.279999999999887 995.5221945740234
14.309999999999887 1017.0585888974264
14.339999999999886 1041.2233066292258
14.369999999999886 1065.276165514649
14.399999999999885 1086.5832299178471
14.429999999999884 1102.895911918059
14.459999999999884 1112.582430355939
14.489999999999883 1114.7847925206797
14.519999999999882 1109.4862885691591
14.549999999999882 1097.4866425700059
14.579999999999881 1080.2906837830828
14.60999999999988 1059.9223496956708
14.63999999999988 1038.686263740289
14.66999999999988 1018.9055241158559
14.699999999999878 1002.6664310517908
14.729999999999878 991.597777742048
14.759999999999877 986.7070911458663
14.789999999999877 988.290722440885
14.819999999999876 995.9264620037131
14.849999999999875 1008.5456212904222
14.879999999999875 1024.573806981296
14.909999999999874 1042.123378453429
14.939999999999873 1059.2144901029492
14.969999999999873 1073.9988733931182
14.999999999999872 1084.9591972950125
15.029999999999871 1091.063929077976
15.05999999999987 1091.8632092578014
15.08999999999987 1087.515189223855
15.11999999999987 1078.7441214534424
15.149999999999869 1066.7370375738535
15.179999999999868 1052.9932300207836
15.209999999999868 1039.1435199662324
15.239999999999867 1026.7614393623776
15.269999999999866 1017.188910673889
15.299999999999866 1011.3953342738256
15.329999999999865 1009.8839596786163
15.359999999999864 1012.6548852135704
15.389999999999864 1019.2261562034112
15.419999999999863 1028.7080760570725
15.449999999999863 1039.9227982982484
15.479999999999862 1051.5502329915114
15.509999999999861 1062.282491105832
15.53999999999986 1070.9694229607906
15.56999999999986 1076.740850241768
15.59999999999986 1079.0900033854127
15.629999999999859 1077.912091084579
15.659999999999858 1073.497706160952
15.689999999999857 1066.4809226972238
15.719999999999857 1057.751938139174
15.749999999999856 1048.3446089081406
15.779999999999855 1039.3140360178204
15.809999999999855 1031.6184848275748
15.839999999999854 1026.0159649081577
15.869999999999854 1022.987509195249
15.899999999999853 1022.6953559459733
15.929999999999852 1024.9823495753099
15.959999999999852 1029.4044965481999
15.989999999999851 1035.2948363851094
16.01999999999985 1041.8513768311818
16.04999999999985 1048.236335372335
16.079999999999853 1053.6732568254638
16.109999999999854 1057.5315113162637
16.139999999999855 1059.3895087931062
16.169999999999856 1059.0715611406883
16.199999999999857 1056.6544810680616
16.22999999999986 1052.4449429522192
