# Results for "element" with Id # 2029193 for search config "initial" at position: x0: -10.9789473684; y0: 28.5210526316; z0: 167.6667
# time PRESSURE
0.03 1361.8934006632194
0.06 3894.5736370514524
0.09 7314.8675261878725
0.12 11273.758539328359
0.15 15389.14580512908
0.18 19280.7081457666
0.21 22603.53388622858
0.24 25077.68771346745
0.27 26511.284538065505
0.30000000000000004 26815.124748854567
0.33000000000000007 26007.609009363874
0.3600000000000001 24209.504323490553
0.3900000000000001 21629.13129013356
0.42000000000000015 18539.554656628286
0.4500000000000002 15250.23262823474
0.4800000000000002 12076.163972026337
0.5100000000000002 9307.76359928245
0.5400000000000003 7184.476757430704
0.5700000000000003 5874.567777212733
0.6000000000000003 5462.708735800321
0.6300000000000003 5946.083364703942
0.6600000000000004 7238.843158756828
0.6900000000000004 9183.990423138614
0.7200000000000004 11571.18060802895
0.7500000000000004 14158.533884429024
0.7800000000000005 16696.327282633807
0.8100000000000005 18950.387405136986
0.8400000000000005 20723.112412375238
0.8700000000000006 21870.31576635511
0.9000000000000006 22312.491202830563
0.9300000000000006 22039.630761766755
0.9600000000000006 21109.3375469933
0.9900000000000007 19638.62027352855
1.0200000000000007 17790.351539333868
1.0500000000000007 15755.880863315922
1.0800000000000007 13735.630072018714
1.1100000000000008 11919.64357647693
1.1400000000000008 10469.993916990843
1.1700000000000008 9506.669850177757
1.2000000000000008 9098.144563023214
1.2300000000000009 9257.28992359503
1.260000000000001 9942.746055733103
1.290000000000001 11065.329129801707
1.320000000000001 12498.619680630112
1.350000000000001 14092.54499316735
1.380000000000001 15688.56744933949
1.410000000000001 17135.015955941148
1.440000000000001 18301.1447667327
1.470000000000001 19088.66489317682
1.500000000000001 19439.75399616952
1.5300000000000011 19340.900616404146
1.5600000000000012 18822.344255647942
1.5900000000000012 17953.30424772547
1.6200000000000012 16833.610281229765
1.6500000000000012 15582.68533539994
1.6800000000000013 14327.080548698716
1.7100000000000013 13187.863288370514
1.7400000000000013 12269.121708643319
1.7700000000000014 11648.674322619749
1.8000000000000014 11371.79463847636
1.8300000000000014 11448.410425195758
1.8600000000000014 11853.869610686143
1.8900000000000015 12533.007487561386
1.9200000000000015 13406.948375725502
1.9500000000000015 14381.850675241512
1.9800000000000015 15358.662294297133
2.0100000000000016 16242.910713898782
2.0400000000000014 16953.596040150755
2.070000000000001 17430.381694923068
2.100000000000001 17638.46913206774
2.130000000000001 17570.787654890213
2.1600000000000006 17247.396792170395
2.1900000000000004 16712.275169178956
2.22 16027.916691480239
2.25 15268.355062945822
2.28 14511.372908318586
2.3099999999999996 13830.701305697043
2.3399999999999994 13288.983371535494
2.369999999999999 12932.16371279003
2.399999999999999 12785.792848330542
2.429999999999999 12853.518646359407
2.4599999999999986 13117.808263909652
2.4899999999999984 13542.718245542621
2.5199999999999982 14078.339341726036
2.549999999999998 14666.397827796945
2.579999999999998 15246.405480203097
2.6099999999999977 15761.72747529018
2.6399999999999975 16164.974492644349
2.6699999999999973 16422.218947808266
2.699999999999997 16515.673982731558
2.729999999999997 16444.641444011344
2.7599999999999967 16224.716871144701
2.7899999999999965 15885.414155681563
2.8199999999999963 15466.524531357863
2.849999999999996 15013.63568340052
2.879999999999996 14573.30280507451
2.9099999999999957 14188.37275901366
2.9399999999999955 13893.92171839116
2.9699999999999953 13714.18050257973
2.999999999999995 13660.70222026849
3.029999999999995 13731.88958022759
3.0599999999999947 13913.855340570357
3.0899999999999945 14182.46027517248
3.1199999999999943 14506.262127289894
3.149999999999994 14850.035263037196
3.179999999999994 15178.480153603785
3.2099999999999937 15459.743773053466
3.2399999999999936 15668.409730279984
3.2699999999999934 15787.687077845214
3.299999999999993 15810.620587103338
3.329999999999993 15740.251424687394
3.3599999999999928 15588.768079695532
3.3899999999999926 15375.784732464286
3.4199999999999924 15125.96808468474
3.449999999999992 14866.285800474976
3.479999999999992 14623.175114928166
3.509999999999992 14419.921599271453
3.5399999999999916 14274.500637996662
3.5699999999999914 14198.073560006858
3.599999999999991 14194.253825724594
3.629999999999991 14259.173259224433
3.659999999999991 14382.29657475364
3.6899999999999906 14547.860345245033
3.7199999999999904 14736.75553576729
3.7499999999999902 14928.639661802168
3.77999999999999 15104.052500103437
3.80999999999999 15246.321982010693
3.8399999999999896 15343.0800671027
3.8699999999999894 15387.257644138062
3.8999999999999893 15377.487476797578
3.929999999999989 15317.908635628113
3.959999999999989 15217.426019292569
3.9899999999999887 15088.531547445096
4.019999999999989 14945.832029306024
4.049999999999989 14804.449668586924
4.079999999999989 14678.465118551314
4.10999999999999 14579.558507958209
4.13999999999999 14515.974590212903
4.16999999999999 14491.897649840272
4.19999999999999 14507.274959497634
4.229999999999991 14558.079411384004
4.259999999999991 14636.958890970483
4.289999999999991 14734.182570629866
4.319999999999991 14838.770431860168
4.349999999999992 14939.680208670055
4.379999999999992 15026.927508531699
4.409999999999992 15092.529913863835
4.439999999999992 15131.189798548508
4.469999999999993 15140.66271351057
4.499999999999993 15121.793405278746
4.529999999999993 15078.236482873137
4.559999999999993 15015.909537291167
4.589999999999994 14942.251119094788
4.619999999999994 14865.371389569042
4.649999999999994 14793.188690821707
4.679999999999994 14732.640208575558
4.709999999999995 14689.042667451373
4.739999999999995 14665.658425295449
4.769999999999995 14663.497881952026
4.799999999999995 14681.362942512635
4.829999999999996 14716.11210998901
4.859999999999996 14763.1052256812
4.889999999999996 14816.77129644352
4.919999999999996 14871.233400045894
4.949999999999997 14920.923497810287
4.979999999999997 14961.125647214656
5.009999999999997 14988.396823226292
5.039999999999997 15000.830493745922
5.069999999999998 14998.146886780374
5.099999999999998 14981.61280108662
5.129999999999998 14953.809876707091
5.159999999999998 14918.28513434584
5.189999999999999 14879.127081069177
5.219999999999999 14840.516176768586
5.249999999999999 14806.296205678664
5.279999999999999 14779.609157687057
5.31 14762.625917621903
5.34 14756.394292693189
5.37 14760.810387819714
5.4 14774.708263494666
5.430000000000001 14796.050708496336
5.460000000000001 14822.195571380216
5.490000000000001 14850.20399384084
5.520000000000001 14877.156891182807
5.550000000000002 14900.447086393437
5.580000000000002 14918.019189874147
5.610000000000002 14928.538452237
5.640000000000002 14931.474959656342
5.670000000000003 14927.099393981527
5.700000000000003 14916.398382593216
5.730000000000003 14900.92426559394
5.760000000000003 14882.599593598203
5.790000000000004 14863.498471498366
5.820000000000004 14845.628191415497
5.850000000000004 14830.7351404585
5.880000000000004 14820.148578961627
5.910000000000005 14814.677086872976
5.940000000000005 14814.565398307794
5.970000000000005 14819.510820237985
6.000000000000005 14828.732673789087
6.030000000000006 14841.084869365119
6.060000000000006 14855.196186668469
6.090000000000006 14869.622763359232
6.120000000000006 14882.996611773415
6.150000000000007 14894.155460546739
6.180000000000007 14902.242177244987
6.210000000000007 14906.767215751348
6.240000000000007 14907.629845489446
6.270000000000008 14905.100161986185
6.300000000000008 14899.766400158562
6.330000000000008 14892.453377588256
6.360000000000008 14884.124511210592
6.390000000000009 14875.777274024364
6.420000000000009 14868.34362718722
6.450000000000009 14862.604356459862
6.480000000000009 14859.123469121736
6.51000000000001 14858.208470967505
6.54000000000001 14859.898708039898
6.57000000000001 14863.980313397711
6.60000000000001 14870.02505701379
6.6300000000000106 14877.447703221587
6.660000000000011 14885.572958896442
6.690000000000011 14893.706290888478
6.720000000000011 14901.202626910614
6.7500000000000115 14907.52495345879
6.780000000000012 14912.288300230433
6.810000000000012 14915.286536450614
6.840000000000012 14916.499534285726
6.8700000000000125 14916.082435701883
6.900000000000013 14914.339402817386
6.930000000000013 14911.684745916024
6.960000000000013 14908.59637451146
6.9900000000000135 14905.56634202607
7.020000000000014 14903.052904873304
7.050000000000014 14901.438640243256
7.080000000000014 14900.998423665102
7.1100000000000145 14901.879801553136
7.140000000000015 14904.096796012383
7.170000000000015 14907.536359703121
7.200000000000015 14911.976317726792
7.2300000000000155 14917.112467283543
7.260000000000016 14922.592021723956
7.290000000000016 14928.049808159905
7.320000000000016 14933.143700351051
7.3500000000000165 14937.585669609163
7.380000000000017 14941.166068654287
7.410000000000017 14943.769455866577
7.440000000000017 14945.380712546419
7.4700000000000175 14946.081315443596
7.500000000000018 14946.036922841053
7.530000000000018 14945.477310041799
7.560000000000018 14944.670908043072
7.5900000000000185 14943.89671648759
7.620000000000019 14943.416714094397
7.650000000000019 14943.451440020766
7.680000000000019 14944.160660716778
7.7100000000000195 14945.630513429325
7.74000000000002 14947.867855131262
7.77000000000002 14950.80297629151
7.80000000000002 14954.299393960886
7.8300000000000205 14958.170124743881
7.860000000000021 14962.198309077183
7.890000000000021 14966.15971506339
7.920000000000021 14969.844921365318
7.9500000000000215 14973.079622593044
7.980000000000022 14975.740566825178
8.010000000000021 14977.76631004033
8.04000000000002 14979.161120586796
8.07000000000002 14979.991881336231
8.10000000000002 14980.379243054116
8.130000000000019 14980.483388975856
8.160000000000018 14980.486080671717
8.190000000000017 14980.571579701533
8.220000000000017 14980.907954548864
8.250000000000016 14981.630656311092
8.280000000000015 14982.82974854242
8.310000000000015 14984.542433630164
8.340000000000014 14986.751268294523
8.370000000000013 14989.38772137117
8.400000000000013 14992.34127554162
8.430000000000012 14995.472470888979
8.460000000000012 14998.628507980688
8.49000000000001 15001.65959952056
8.52000000000001 15004.434050318003
8.55000000000001 15006.851783448426
8.580000000000009 15008.853333667701
8.610000000000008 15010.42576013839
8.640000000000008 15011.602850973362
8.670000000000007 15012.458536127579
8.700000000000006 15013.096911269959
8.730000000000006 15013.639933634362
8.760000000000005 15014.214044334232
8.790000000000004 15014.937048663003
8.820000000000004 15015.905575405992
8.850000000000003 15017.18522741643
8.880000000000003 15018.804567238985
8.910000000000002 15020.753437208099
8.940000000000001 15022.985682785627
8.97 15025.426175221597
9.0 15027.980111457764
9.03 15030.542951663208
9.059999999999999 15033.011443370275
9.089999999999998 15035.294738959528
9.119999999999997 15037.325106444754
9.149999999999997 15039.064909096483
9.179999999999996 15040.509281721268
9.209999999999996 15041.684702174167
9.239999999999995 15042.644230586084
9.269999999999994 15043.461873592265
9.299999999999994 15044.224272207757
9.329999999999993 15045.020827338123
9.359999999999992 15045.934376853933
9.389999999999992 15047.032044522435
9.419999999999991 15048.358445901951
9.44999999999999 15049.932048694325
9.47999999999999 15051.744897910849
9.50999999999999 15053.76479221884
9.539999999999988 15055.940594131684
9.569999999999988 15058.209653556542
9.599999999999987 15060.505207587361
9.629999999999987 15062.76465641127
9.659999999999986 15064.935960331317
9.689999999999985 15066.982705165483
9.719999999999985 15068.887974353172
9.749999999999984 15070.656037739034
9.779999999999983 15072.311524264205
9.809999999999983 15073.895161630082
9.839999999999982 15075.458034462903
9.869999999999981 15077.055703393567
9.89999999999998 15078.742396110958
9.92999999999998 15080.564927989673
9.95999999999998 15082.556769555718
9.989999999999979 15084.73450204487
10.019999999999978 13874.016110442131
10.049999999999978 11074.732772488132
10.079999999999977 7134.452813263519
10.109999999999976 2607.1705532533724
10.139999999999976 -1919.6431212542423
10.169999999999975 -5898.849429008978
10.199999999999974 -8887.36179808271
10.229999999999974 -10592.297017647878
10.259999999999973 -10895.364962719723
10.289999999999973 -9854.408395312668
10.319999999999972 -7683.848622127915
10.349999999999971 -4718.011271032048
10.37999999999997 -1362.963148142649
10.40999999999997 1956.672037799016
10.43999999999997 4849.385583909923
10.469999999999969 7001.031960995684
10.499999999999968 8206.972882387561
10.529999999999967 8389.105065523781
10.559999999999967 7596.638264849478
10.589999999999966 5991.551365366651
10.619999999999965 3821.3874750304603
10.649999999999965 1383.531011429235
10.679999999999964 -1014.066962173244
10.709999999999964 -3090.6132643479277
10.739999999999963 -4624.0926077025415
10.769999999999962 -5473.3656149689405
10.799999999999962 -5588.81679671304
10.829999999999961 -5011.195086866474
10.85999999999996 -3859.814088723422
10.88999999999996 -2312.381099491206
10.919999999999959 -579.562333671163
10.949999999999958 1122.3053234939798
10.979999999999958 2597.0173996913986
11.009999999999957 3689.9321946364116
11.039999999999957 4302.8572848614485
11.069999999999956 4401.162489984874
11.099999999999955 4012.87159165123
11.129999999999955 3220.4769446922205
11.159999999999954 2146.987462763448
11.189999999999953 938.3388814001933
11.219999999999953 -255.46654605109686
11.249999999999952 -1298.1571397084635
11.279999999999951 -2081.918100820857
11.30999999999995 -2537.5744176459507
11.33999999999995 -2639.428044410999
11.36999999999995 -2404.6393207940046
11.399999999999949 -1887.7025304821718
11.429999999999948 -1171.0658869301658
11.459999999999948 -353.32173697980676
11.489999999999947 463.4655009155625
11.519999999999946 1185.758058288376
11.549999999999946 1738.5445252667769
11.579999999999945 2072.3597182195645
11.609999999999944 2166.7734428525782
11.639999999999944 2030.2524049670837
11.669999999999943 1696.7294876187507
11.699999999999942 1219.5584148941316
11.729999999999942 663.7803632806362
11.759999999999941 97.73839050320527
11.78999999999994 -414.94758098018417
11.81999999999994 -822.1594282240358
11.84999999999994 -1088.15422808245
11.879999999999939 -1196.1480777577535
11.909999999999938 -1148.5266165965181
11.939999999999937 -964.872994096799
11.969999999999937 -678.2360236586314
11.999999999999936 -330.22155688908265
12.029999999999935 34.42585064732706
12.059999999999935 373.09461912791164
12.089999999999934 649.8526214279834
12.119999999999933 838.8236078722339
12.149999999999933 926.1266866254988
12.179999999999932 910.3045491171891
12.209999999999932 801.3357063775002
12.239999999999931 618.4796764990253
12.26999999999993 387.30572786220034
12.29999999999993 136.31536333797527
12.329999999999929 -106.43390287341286
12.359999999999928 -316.33067448980194
12.389999999999928 -474.54781081634155
12.419999999999927 -569.5271958020104
12.449999999999926 -597.5347294281991
12.479999999999926 -562.3168090695414
12.509999999999925 -473.98441816307786
12.539999999999925 -347.32329503923063
12.569999999999924 -199.77219298584944
12.599999999999923 -49.322684892764514
12.629999999999923 87.42840661832986
12.659999999999922 196.88029748342478
12.689999999999921 269.5529133660581
12.71999999999992 300.66789441022456
12.74999999999992 290.1821217183063
12.77999999999992 242.33509942291883
12.809999999999919 164.80369301797558
12.839999999999918 67.58877779598855
12.869999999999918 -38.21946989772415
12.899999999999917 -141.6616582884123
12.929999999999916 -232.99393011288427
12.959999999999916 -304.54356124614
12.989999999999915 -351.27158336470177
13.019999999999914 -371.02520257340564
13.049999999999914 -364.4800150018054
13.079999999999913 -334.8156932516568
13.109999999999912 -287.1808772951887
13.139999999999912 -228.0232006613071
13.169999999999911 -164.37132537742878
13.19999999999991 -103.12435017699143
13.22999999999991 -50.41260590687836
13.25999999999991 -11.081446665765071
13.289999999999909 11.663235964348392
13.319999999999908 16.430171455439023
13.349999999999907 3.6429216792564745
13.379999999999907 -24.629211119890428
13.409999999999906 -64.97927821298576
13.439999999999905 -113.07181953015352
13.469999999999905 -164.11068947675372
13.499999999999904 -213.30877605956317
13.529999999999903 -256.32690103618506
13.559999999999903 -289.64276247995235
13.589999999999902 -310.83565301927285
13.619999999999902 -318.7643677750718
13.6499999999999 -313.61953197910094
13.6799999999999 -296.842379628755
13.7099999999999 -270.9343806500367
13.739999999999899 -239.17933526344683
13.769999999999898 -205.29518882181554
13.799999999999898 -173.0587042685408
13.829999999999897 -145.94099033763206
13.859999999999896 -126.77583077282645
13.889999999999896 -117.50397490903094
13.919999999999895 -119.00982966250967
13.949999999999894 -131.0685547671996
13.979999999999894 -152.3999932349344
14.009999999999893 -180.83373386055996
14.039999999999893 -213.56218097227335
14.069999999999892 -247.43072831889154
14.099999999999891 -279.27150046090645
14.12999999999989 -306.2378022355239
14.15999999999989 -326.083955191084
14.18999999999989 -337.3769470003952
14.219999999999889 -339.6168807495304
14.249999999999888 -333.25452711112825
14.279999999999887 -319.615187277685
14.309999999999887 -300.73928131241905
14.339999999999886 -279.1483949773139
14.369999999999886 -257.5538850492332
14.399999999999885 -238.55469874832693
14.429999999999884 -224.36026095831517
14.459999999999884 -216.55829446716965
14.489999999999883 -215.96246276377377
14.519999999999882 -222.5498650425465
14.549999999999882 -235.48760663583306
14.579999999999881 -253.2446200456745
14.60999999999988 -273.7777540778434
14.63999999999988 -294.7716308622658
14.66999999999988 -313.9006494551495
14.699999999999878 -329.0854909379729
14.729999999999878 -338.71107612139895
14.759999999999877 -341.78894209599156
14.789999999999877 -338.0450006659563
14.819999999999876 -327.9227723865922
14.849999999999875 -312.51112417622033
14.879999999999875 -293.4035608324402
14.909999999999874 -272.50657621041375
14.939999999999873 -251.81791277014372
14.969999999999873 -233.20147633374415
14.999999999999872 -218.18889839223448
15.029999999999871 -207.82560486078347
15.05999999999987 -202.5776336655263
15.08999999999987 -202.30487089381822
15.11999999999987 -206.30423650373072
15.149999999999869 -213.41067774616693
15.179999999999868 -222.1444315393474
15.209999999999868 -230.8913583282783
15.239999999999867 -238.09217125075733
15.269999999999866 -242.41878827828492
15.299999999999866 -242.9178792819995
15.329999999999865 -239.10569434868768
15.359999999999864 -231.00561582184383
15.389999999999864 -219.12895719208854
15.419999999999863 -204.3956717921074
15.449999999999863 -188.00713047561828
15.479999999999862 -171.2971451053866
15.509999999999861 -155.58063414969797
15.53999999999986 -142.01268794981604
15.56999999999986 -131.47004323643333
15.59999999999986 -124.46834089618116
15.629999999999859 -121.12647813885778
15.659999999999858 -121.16717131133572
15.689999999999857 -123.9707540095662
15.719999999999857 -128.66007314319643
15.749999999999856 -134.21274711096993
15.779999999999855 -139.5803358107282
15.809999999999855 -143.79849633757306
15.839999999999854 -146.09510496534284
15.869999999999854 -145.97526877584556
15.899999999999853 -143.26664432688958
15.929999999999852 -138.1134591095567
15.959999999999852 -130.94838541224763
15.989999999999851 -122.4283327351856
16.01999999999985 -113.34064554699675
16.04999999999985 -104.49978836209988
16.079999999999853 -96.65349597924332
16.109999999999854 -90.40265478198096
