# Results for "element" with Id # 154030 for search config "initial" at position: x0: -7.78947368421; y0: 31.7105263158; z0: 167.6667
# time PRESSURE
0.03 1358.5952812286043
0.06 3885.0745347857433
0.09 7296.890809399586
0.12 11245.835173462014
0.15 15350.733822034732
0.18 19232.245883896998
0.21 22546.417784392743
0.24 25014.160808083696
0.27 26444.226141889918
0.30000000000000004 26747.747777428205
0.33000000000000007 25943.093780396543
0.3600000000000001 24150.618699064347
0.3900000000000001 21577.897175338978
0.42000000000000015 18497.01591083497
0.4500000000000002 15216.360813213065
0.4800000000000002 12049.911433632948
0.5100000000000002 9287.246414640826
0.5400000000000003 7167.250073512906
0.5700000000000003 5857.946644800508
0.6000000000000003 5444.088951579662
0.6300000000000003 5923.225161554402
0.6600000000000004 7210.091516070343
0.6900000000000004 9148.416648720739
0.7200000000000004 11528.637541504455
0.7500000000000004 14109.623089079112
0.7800000000000005 16642.283012133452
0.8100000000000005 18892.890295678273
0.8400000000000005 20664.055613638873
0.8700000000000006 21811.555140778193
0.9000000000000006 22255.615629539712
0.9300000000000006 21985.785866166145
0.9600000000000006 21059.12662799629
0.9900000000000007 19592.090099488345
1.0200000000000007 17747.05580197816
1.0500000000000007 15715.001043547285
1.0800000000000007 13696.127312180131
1.1100000000000008 11880.414811565242
1.1400000000000008 10430.00999329342
1.1700000000000008 9465.08030348144
1.2000000000000008 9054.34118400704
1.2300000000000009 9210.928687379026
1.260000000000001 9893.732154892876
1.290000000000001 11013.775084796329
1.320000000000001 12444.788006067514
1.350000000000001 14036.787659439426
1.380000000000001 15631.27216620363
1.410000000000001 17076.565756403736
1.440000000000001 18241.892955690015
1.470000000000001 19028.923298356807
1.500000000000001 19379.789786511596
1.5300000000000011 19280.93572403081
1.5600000000000012 18762.552681176483
1.5900000000000012 17893.804357230154
1.6200000000000012 16774.452546760534
1.6500000000000012 15523.838696503935
1.6800000000000013 14268.422364117403
1.7100000000000013 13129.17814194497
1.7400000000000013 12210.113044292482
1.7700000000000014 11588.989854596435
1.8000000000000014 11311.063004937952
1.8300000000000014 11386.283743996913
1.8600000000000014 11790.064483688586
1.8900000000000015 12467.337539175995
1.9200000000000015 13339.342583975638
1.9500000000000015 14312.354702948302
1.9800000000000015 15287.423460383516
2.0100000000000016 16170.15023444823
2.0400000000000014 16879.574278759363
2.070000000000001 17355.36276680151
2.100000000000001 17562.690501433906
2.130000000000001 17494.43832420915
2.1600000000000006 17170.605564262794
2.1900000000000004 16635.10784491068
2.22 15950.379729789223
2.25 15190.402733053004
2.28 14432.915358354214
2.3099999999999996 13751.612131901027
2.3399999999999994 13209.10662227208
2.369999999999999 12851.321311096806
2.399999999999999 12703.79378336962
2.429999999999999 12770.171083151767
2.4599999999999986 13032.934550598271
2.4899999999999984 13456.171851403069
2.5199999999999982 13990.021508602636
2.549999999999998 14576.270978128137
2.579999999999998 15154.500511639182
2.6099999999999977 15668.14275726524
2.6399999999999975 16069.865672542172
2.6699999999999973 16325.780318149586
2.699999999999997 16418.113723806167
2.729999999999997 16346.154266450036
2.7599999999999967 16125.458267898059
2.7899999999999965 15785.480054038055
2.8199999999999963 15365.939323945297
2.849999999999996 14912.3502166163
2.879999999999996 14471.202176502948
2.9099999999999957 14085.292280456897
2.9399999999999955 13789.668318350827
2.9699999999999953 13608.556255929616
2.999999999999995 13553.526757237005
3.029999999999995 13623.018628466227
3.0599999999999947 13803.193446409165
3.0899999999999945 14069.966868828167
3.1199999999999943 14391.950950464707
3.149999999999994 14733.967893344796
3.179999999999994 15060.75496112224
3.2099999999999937 15340.481919547618
3.2399999999999936 15547.739896055537
3.2699999999999934 15665.730547426396
3.299999999999993 15687.478111132365
3.329999999999993 15615.993041419015
3.3599999999999928 15463.42674984728
3.3899999999999926 15249.354195046513
3.4199999999999924 14998.404954148777
3.449999999999992 14737.51553984487
3.479999999999992 14493.101066152189
3.509999999999992 14288.43596507463
3.5399999999999916 14141.496123834066
3.5699999999999914 14063.454365697247
3.599999999999991 14057.944789564632
3.629999999999991 14121.126260843119
3.659999999999991 14242.493632805063
3.6899999999999906 14406.313248293136
3.7199999999999904 14593.502292702167
3.7499999999999902 14783.738329665155
3.77999999999999 14957.573265966103
3.80999999999999 15098.338486279294
3.8399999999999896 15193.660920675738
3.8699999999999894 15236.459010381224
3.8999999999999893 15225.34752005203
3.929999999999989 15164.444269904998
3.959999999999989 15062.63213754727
3.9899999999999887 14932.382686391433
4.019999999999989 14788.286129048156
4.049999999999989 14645.453445048082
4.079999999999989 14517.960321408927
4.10999999999999 14417.488356984439
4.13999999999999 14352.289719867467
4.16999999999999 14326.560952508311
4.19999999999999 14340.264845335965
4.229999999999991 14389.391227082604
4.259999999999991 14466.604397482339
4.289999999999991 14562.187713684683
4.319999999999991 14665.171780234807
4.349999999999992 14764.520470390537
4.379999999999992 14850.25067270525
4.409999999999992 14914.37658268286
4.439999999999992 14951.59318316338
4.469999999999993 14959.6457104695
4.499999999999993 14939.367026440787
4.529999999999993 14894.39970419934
4.559999999999993 14830.6505206585
4.589999999999994 14755.549544853442
4.619999999999994 14677.201606240385
4.649999999999994 14603.523322260353
4.679999999999994 14541.453790346704
4.709999999999995 14496.314880637696
4.739999999999995 14471.376602263006
4.769999999999995 14467.658538827509
4.799999999999995 14483.972246719146
4.829999999999996 14517.18527920025
4.859999999999996 14562.66500425013
4.889999999999996 14614.845751327759
4.919999999999996 14667.853282748847
4.949999999999997 14716.119489138875
4.979999999999997 14754.925824528933
5.009999999999997 14780.824622922544
5.039999999999997 14791.903378420397
5.069999999999998 14787.875774300323
5.099999999999998 14770.002292549714
5.129999999999998 14740.859337779375
5.159999999999998 14703.990243382232
5.189999999999999 14663.481643270035
5.219999999999999 14623.514221526086
5.249999999999999 14587.93403321738
5.279999999999999 14559.886957485262
5.31 14541.548665253276
5.34 14533.972300419318
5.37 14537.059285842905
5.4 14549.648300641693
5.430000000000001 14569.705746454643
5.460000000000001 14594.591765064491
5.490000000000001 14621.36837930741
5.520000000000001 14647.115888663213
5.550000000000002 14669.224897253544
5.580000000000002 14685.636396745982
5.610000000000002 14695.01180272773
5.640000000000002 14696.81832759581
5.670000000000003 14691.324512796342
5.700000000000003 14679.515336348903
5.730000000000003 14662.941895535956
5.760000000000003 14643.526150323381
5.790000000000004 14623.342542474324
5.820000000000004 14604.39963432792
5.850000000000004 14588.446580388816
5.880000000000004 14576.816094160677
5.910000000000005 14570.320011429818
5.940000000000005 14569.205840999166
5.970000000000005 14573.172947007244
6.000000000000005 14581.44177260268
6.030000000000006 14592.866590148058
6.060000000000006 14606.075814319423
6.090000000000006 14619.624614251017
6.120000000000006 14632.143695646932
6.150000000000007 14642.469290951087
6.180000000000007 14649.742634266087
6.210000000000007 14653.472503199839
6.240000000000007 14653.556639357941
6.270000000000008 14650.26407591828
6.300000000000008 14644.182917396012
6.330000000000008 14636.13817520512
6.360000000000008 14627.09372404786
6.390000000000009 14618.047663820606
6.420000000000009 14609.932914014076
6.450000000000009 14603.531709375846
6.480000000000009 14599.409619345703
6.51000000000001 14597.875434019126
6.54000000000001 14598.969206744632
6.57000000000001 14602.477030122402
6.60000000000001 14607.970158561302
6.6300000000000106 14614.862885314877
6.660000000000011 14622.479226039377
6.690000000000011 14630.123392555024
6.720000000000011 14637.148998526192
6.7500000000000115 14643.01781832743
6.780000000000012 14647.343846594635
6.810000000000012 14649.920137360512
6.840000000000012 14650.72595774101
6.8700000000000125 14649.916018521526
6.900000000000013 14647.794177605401
6.930000000000013 14644.774636292235
6.960000000000013 14641.335371893852
6.9900000000000135 14637.968675435288
7.020000000000014 14635.13305617204
7.050000000000014 14633.211052017712
7.080000000000014 14632.477088426715
7.1100000000000145 14633.07782724911
7.140000000000015 14635.025992479203
7.170000000000015 14638.206916176627
7.200000000000015 14642.396585400915
7.2300000000000155 14647.288797544476
7.260000000000016 14652.528664023135
7.290000000000016 14657.748963714666
7.320000000000016 14662.605659645675
7.3500000000000165 14666.808961237954
7.380000000000017 14670.147639668809
7.410000000000017 14672.504937116995
7.440000000000017 14673.864688767959
7.4700000000000175 14674.307467723458
7.500000000000018 14673.998298630819
7.530000000000018 14673.166669315835
7.560000000000018 14672.080894348297
7.5900000000000185 14671.019729679232
7.620000000000019 14670.24469196954
7.650000000000019 14669.975776112478
7.680000000000019 14670.372247467343
7.7100000000000195 14671.519841453417
7.74000000000002 14673.425080779833
7.77000000000002 14676.018018207562
7.80000000000002 14679.162005140459
7.8300000000000205 14682.670023463439
7.860000000000021 14686.325326330361
7.890000000000021 14689.903912271999
7.920000000000021 14693.196691041807
7.9500000000000215 14696.029743686518
7.980000000000022 14698.280252125953
8.010000000000021 14699.887314723532
8.04000000000002 14700.855883483697
8.07000000000002 14701.253591677465
8.10000000000002 14701.201870593412
8.130000000000019 14700.861645064848
8.160000000000018 14700.41524461746
8.190000000000017 14700.047357566245
8.220000000000017 14699.926442062872
8.250000000000016 14700.188367449246
8.280000000000015 14700.92357037889
8.310000000000015 14702.169564545013
8.340000000000014 14703.909193487852
8.370000000000013 14706.074187724982
8.400000000000013 14708.554250082325
8.430000000000012 14711.210118588398
8.460000000000012 14713.889222181164
8.49000000000001 14716.442193245055
8.52000000000001 14718.737243615098
8.55000000000001 14720.673940843146
8.580000000000009 14722.192240037195
8.610000000000008 14723.278863592137
8.640000000000008 14723.9678577986
8.670000000000007 14724.333441763463
8.700000000000006 14724.47968973219
8.730000000000006 14724.528180937927
8.760000000000005 14724.604745646408
8.790000000000004 14724.826521834406
8.820000000000004 14725.289521382008
8.850000000000003 14726.058724881335
8.880000000000003 14727.1619388537
8.910000000000002 14728.588162525783
8.940000000000001 14730.290756121824
8.97 14732.194579447056
9.0 14734.205338167245
9.03 14736.21904389447
9.059999999999999 14738.13276277697
9.089999999999998 14739.855755486915
9.119999999999997 14741.320671374862
9.149999999999997 14742.49070886438
9.179999999999996 14743.362240205564
9.209999999999996 14743.963054812679
9.239999999999995 14744.34732205344
9.269999999999994 14744.590375598711
9.299999999999994 14744.780357039894
9.329999999999993 14745.008547673786
9.359999999999992 14745.359977986567
9.389999999999992 14745.90398375666
9.419999999999991 14746.687304905574
9.44999999999999 14747.730443542365
9.47999999999999 14749.027487964546
9.50999999999999 14750.548232140425
9.539999999999988 14752.243561701034
9.569999999999988 14754.053037912656
9.599999999999987 14755.911938802681
9.629999999999987 14757.759589754101
9.659999999999986 14759.545607918539
9.689999999999985 14761.234866955128
9.719999999999985 14762.811384854236
9.749999999999984 14764.280133536486
9.779999999999983 14765.666173544783
9.809999999999983 14767.010094539348
9.839999999999982 14768.362165988496
9.869999999999981 14769.77681668639
9.89999999999998 14771.307193916731
9.92999999999998 14772.998986145225
9.95999999999998 14774.884158752733
9.989999999999979 14776.977406001835
10.019999999999978 13571.671399503872
10.049999999999978 10783.814377671948
10.079999999999977 6857.7413177527405
10.109999999999976 2344.902595368683
10.139999999999976 -2168.8042820761716
10.169999999999975 -6137.055068358212
10.199999999999974 -9117.13721981721
10.229999999999974 -10816.290056735423
10.259999999999973 -11116.130791129057
10.289999999999973 -10074.176185124186
10.319999999999972 -7904.305896841404
10.349999999999971 -4940.164747303054
10.37999999999997 -1587.1081990664711
10.40999999999997 1730.8859537389585
10.43999999999997 4622.831930505306
10.469999999999969 6774.957849009725
10.499999999999968 7982.8394494944505
10.529999999999967 8168.419440716256
10.559999999999967 7380.775115571622
10.589999999999966 5781.5767747032005
10.619999999999965 3617.9100275448463
10.649999999999965 1186.6109542098443
10.679999999999964 -1204.9282438979183
10.709999999999964 -3276.398053743111
10.739999999999963 -4806.118101519528
10.769999999999962 -5653.090995028246
10.799999999999962 -5767.641217312397
10.829999999999961 -5190.280440913995
10.85999999999996 -4039.9572839756993
10.88999999999996 -2493.949439851955
10.919999999999959 -762.4959563531845
10.949999999999958 938.429142939698
10.979999999999958 2412.873929019443
11.009999999999957 3506.314296330687
11.039999999999957 4120.536754266446
11.069999999999956 4220.768140962748
11.099999999999955 3834.80093190791
11.129999999999955 3044.847852073109
11.159999999999954 1973.6306844436676
11.189999999999953 766.8284151402454
11.219999999999953 -425.75204755733535
11.249999999999952 -1467.952725299486
11.279999999999951 -2251.983104482229
11.30999999999995 -2708.6078548606097
11.33999999999995 -2811.9994035818468
11.36999999999995 -2579.1429156249715
11.399999999999949 -2064.338122493632
11.429999999999948 -1349.8462073681326
11.459999999999948 -534.1036481919476
11.489999999999947 280.93202464329744
11.519999999999946 1001.7711208201205
11.549999999999946 1553.3898043606544
11.579999999999945 1886.2558054331541
11.609999999999944 1979.8288827792237
11.639999999999944 1842.4393298880748
11.669999999999943 1507.875007852837
11.699999999999942 1029.3541873738861
11.729999999999942 471.8073007153405
11.759999999999941 -96.49762023484082
11.78999999999994 -611.9740193917554
11.81999999999994 -1022.4953472454898
11.84999999999994 -1292.2734442580888
11.879999999999939 -1404.451462131946
11.909999999999938 -1361.3257840060144
11.939999999999937 -1182.3859807513538
11.969999999999937 -900.595131742083
11.999999999999936 -557.4906895327315
12.029999999999935 -197.77218968386907
12.059999999999935 135.9681589596935
12.089999999999934 407.7938633872953
12.119999999999933 591.8054391345341
12.149999999999933 674.0864664685598
12.179999999999932 653.1397599659119
12.209999999999932 538.9073837900539
12.239999999999931 350.6234080919326
12.26999999999993 113.84814424593296
12.29999999999993 -142.9059877935293
12.329999999999929 -391.55008459398147
12.359999999999928 -607.4229721840701
12.389999999999928 -771.6339824033091
12.419999999999927 -872.5538986858264
12.449999999999926 -906.3772470570752
12.479999999999926 -876.7859557901683
12.509999999999925 -793.8396382306394
12.539999999999925 -672.2897402871563
12.569999999999924 -529.5598824196107
12.599999999999923 -383.6459419894252
12.629999999999923 -251.16665541228105
12.659999999999922 -145.7587595746866
12.689999999999921 -76.94751212174997
12.71999999999992 -49.56015826467855
12.74999999999992 -63.68712530839734
12.77999999999992 -115.12941500041889
12.809999999999919 -196.23977978393927
12.839999999999918 -297.03476697841796
12.869999999999918 -406.428954484663
12.899999999999917 -513.4562926368287
12.929999999999916 -608.3573471385415
12.959999999999916 -683.4388378371631
12.989999999999915 -733.6385399267093
13.019999999999914 -756.7817778676886
13.049999999999914 -753.5250740932215
13.079999999999913 -727.0329630756922
13.109999999999912 -682.4430238347276
13.139999999999912 -626.1951974019576
13.169999999999911 -565.317594069573
13.19999999999991 -506.7163970142273
13.22999999999991 -456.5347784201363
13.25999999999991 -419.6335364864477
13.289999999999909 -399.23360264540275
13.319999999999908 -396.7388152989093
13.349999999999907 -411.7329431982588
13.379999999999907 -442.14856759535445
13.409999999999906 -484.5771138805739
13.439999999999905 -534.6807789588496
13.469999999999905 -587.6640674237126
13.499999999999904 -638.7428928738625
13.529999999999903 -683.5824308778487
13.559999999999903 -718.6632156558729
13.589999999999902 -741.5659281297909
13.619999999999902 -751.1534208590808
13.6499999999999 -747.6244542515138
13.6799999999999 -732.4304255894874
13.7099999999999 -708.0847978026275
13.739999999999899 -677.8856335289694
13.769999999999898 -645.5647149104011
13.799999999999898 -614.9114256309275
13.829999999999897 -589.4081453529509
13.859999999999896 -571.8973002334347
13.889999999999896 -564.3255445724071
13.919999999999895 -567.5798869860255
13.949999999999894 -581.4357340826272
13.979999999999894 -604.6107653713145
14.009999999999893 -634.9307211401318
14.039999999999893 -669.5859224506629
14.069999999999892 -705.4190115432204
14.099999999999891 -739.2586983103524
14.12999999999989 -768.256113808123
14.15999999999989 -790.1635132787532
14.18999999999989 -803.5435695951461
14.219999999999889 -807.8887898173813
14.249999999999888 -803.6393834455874
14.279999999999887 -792.1075016971184
14.309999999999887 -775.3176782822077
14.339999999999886 -755.7729724411101
14.369999999999886 -736.1613545832997
14.399999999999885 -719.0539366991644
14.429999999999884 -706.6302308356517
14.459999999999884 -700.445924179895
14.489999999999883 -701.2817832128676
14.519999999999882 -709.0826643771024
14.549999999999882 -722.985142888382
14.579999999999881 -741.4301127129853
14.60999999999988 -762.350011269767
14.63999999999988 -783.4100783649804
14.66999999999988 -802.2710979540732
14.699999999999878 -816.8468000827886
14.729999999999878 -825.5205754284334
14.759999999999877 -827.3073966555972
14.789999999999877 -821.9410168046779
14.819999999999876 -809.8757206018438
14.849999999999875 -792.2143068933136
14.879999999999875 -770.5665701582179
14.909999999999874 -746.8568417499381
14.939999999999873 -723.1015355738547
14.969999999999873 -701.183586385529
14.999999999999872 -682.6539417728467
15.029999999999871 -668.5772105483127
15.05999999999987 -659.4387051078479
15.08999999999987 -655.1172129735724
15.11999999999987 -654.9285274764396
15.149999999999869 -657.7256737068144
15.179999999999868 -662.045387561625
15.209999999999868 -666.288900657037
15.239999999999867 -668.9115071387861
15.269999999999866 -668.5993233857599
15.299999999999866 -664.4132812375617
15.329999999999865 -655.8843408353385
15.359999999999864 -643.0512420642456
15.389999999999864 -626.4423786268972
15.419999999999863 -606.9955831840308
15.449999999999863 -585.9286500647668
15.479999999999862 -564.5897835225576
15.509999999999861 -544.307633869143
15.53999999999986 -526.2515426728552
15.56999999999986 -511.3133743151699
15.59999999999986 -500.02385521995205
15.629999999999859 -492.51823673543004
15.659999999999858 -488.5343112135269
15.689999999999857 -487.4670581146452
15.719999999999857 -488.45251296177577
15.749999999999856 -490.480757106881
15.779999999999855 -492.5134944704149
15.809999999999855 -493.59061615505044
15.839999999999854 -492.93991793297226
15.869999999999854 -490.06485348087085
15.899999999999853 -484.7904202583559
15.929999999999852 -477.2541230077526
15.959999999999852 -467.8795349312764
15.989999999999851 -457.31210718979025
16.01999999999985 -446.3237529200609
16.04999999999985 -435.70877364263134
16.079999999999853 -426.1921178360327
16.109999999999854 -418.3511009629718
16.139999999999855 -412.56130053801263
