# Results for "element" with Id # 1825347 for search config "initial" at position: x0: -17.3578947368; y0: 22.1421052632; z0: 167.6667
# time PRESSURE
0.03 1366.9952596180794
0.06 3909.2220724969075
0.09 7342.500110006195
0.12 11316.546007311761
0.15 15447.83764821663
0.18 19354.59016042167
0.21 22690.50194599645
0.24 25174.44049530531
0.27 26613.632182494275
0.30000000000000004 26918.397983853585
0.33000000000000007 26107.136444387856
0.3600000000000001 24301.108071233262
0.3900000000000001 21709.580439154342
0.42000000000000015 18606.914703933853
0.4500000000000002 15304.060215668
0.4800000000000002 12117.518667867345
0.5100000000000002 9339.037307624356
0.5400000000000003 7209.069894600454
0.5700000000000003 5896.4628856344425
0.6000000000000003 5486.002005763819
0.6300000000000003 5974.532601722136
0.6600000000000004 7275.480707416378
0.6900000000000004 9230.834564800582
0.7200000000000004 11629.066057549042
0.7500000000000004 14227.071566056326
0.7800000000000005 16773.995068682212
0.8100000000000005 19034.74449427019
0.8400000000000005 20811.118055575942
0.8700000000000006 21958.71822506572
0.9000000000000006 22398.238301610447
0.9300000000000006 22120.244828135583
0.9600000000000006 21183.198572680107
0.9900000000000007 19705.11677519808
1.0200000000000007 17849.881269093734
1.0500000000000007 15809.711522829399
1.0800000000000007 13785.653195774084
1.1100000000000008 11968.069072579898
1.1400000000000008 10519.036185475234
1.1700000000000008 9558.270632827807
1.2000000000000008 9153.766164648647
1.2300000000000009 9317.797575326465
1.260000000000001 10008.384573624804
1.290000000000001 11135.784550785327
1.320000000000001 12573.146905922655
1.350000000000001 14170.134351985474
1.380000000000001 15768.120199940067
1.410000000000001 17215.500471373423
1.440000000000001 18381.711774512136
1.470000000000001 19168.710405137328
1.500000000000001 19518.92980450715
1.5300000000000011 19419.082897448847
1.5600000000000012 18899.57704297342
1.5900000000000012 18029.737079922743
1.6200000000000012 16909.44632826029
1.6500000000000012 15658.149772252575
1.6800000000000013 14402.411089323665
1.7100000000000013 13263.31740184997
1.7400000000000013 12344.990213559555
1.7700000000000014 11725.290080356
1.8000000000000014 11449.527777105148
1.8300000000000014 11527.646222395773
1.8600000000000014 11934.97151599572
1.8900000000000015 12616.271985181615
1.9200000000000015 13492.561664311183
1.9500000000000015 14469.857175267503
1.9800000000000015 15448.952493472945
2.0100000000000016 16335.231774902193
2.0400000000000014 17047.583795370836
2.070000000000001 17525.608492620195
2.100000000000001 17734.499040142444
2.130000000000001 17667.22999888067
2.1600000000000006 17343.94973108051
2.1900000000000004 16808.75415844396
2.22 16124.265851375023
2.25 15364.642562462737
2.28 14607.773938824244
2.3099999999999996 13927.47314549987
2.3399999999999994 13386.436879766872
2.369999999999999 13030.63447805776
2.399999999999999 12885.613995556303
2.429999999999999 12954.995964596454
2.4599999999999986 13221.198098450815
2.4899999999999984 13648.208328548715
2.5199999999999982 14186.033382742447
2.549999999999998 14776.305500792874
2.579999999999998 15358.439685791844
2.6099999999999977 15875.710709295923
2.6399999999999975 16280.655316239934
2.6699999999999973 16539.298126304864
2.699999999999997 16633.83815231471
2.729999999999997 16563.600473437447
2.7599999999999967 16344.239824171333
2.7899999999999965 16005.358709416489
2.8199999999999963 15586.855332981828
2.849999999999996 15134.42865922251
2.879999999999996 14694.734798860569
2.9099999999999957 14310.698156796283
2.9399999999999955 14017.439722043946
2.9699999999999953 13839.198015094602
2.999999999999995 13787.497633170791
3.029999999999995 13860.682294055829
3.0599999999999947 14044.784656464853
3.0899999999999945 14315.575532391777
3.1199999999999943 14641.524287398888
3.149999999999994 14987.328725036843
3.179999999999994 15317.632341718841
3.2099999999999937 15600.549458912446
3.2399999999999936 15810.656880597737
3.2699999999999934 15931.181251718084
3.299999999999993 15955.20547281787
3.329999999999993 15885.823717052739
3.3599999999999928 15735.285669685865
3.3899999999999926 15523.26794602748
3.4199999999999924 15274.49437904885
3.449999999999992 15015.978827632744
3.479999999999992 14774.18962123679
3.509999999999992 14572.425949683762
3.5399999999999916 14428.658883936656
3.5699999999999914 14354.028946681676
3.599999999999991 14352.115446955748
3.629999999999991 14419.007108101287
3.659999999999991 14544.121726860616
3.6899999999999906 14711.65045576196
3.7199999999999904 14902.445149627722
3.7499999999999902 15096.134415496464
3.77999999999999 15273.241826732125
3.80999999999999 15417.092749332125
3.8399999999999896 15515.329641458047
3.8699999999999894 15560.905029780202
3.8999999999999893 15552.481347617653
3.929999999999989 15494.23164246415
3.959999999999989 15395.095173082569
3.9899999999999887 15267.594855626909
4.019999999999989 15126.362015019578
4.049999999999989 14986.534607917365
4.079999999999989 14862.19913801788
4.10999999999999 14765.03165190682
4.13999999999999 14703.263895478653
4.16999999999999 14681.060118098547
4.19999999999999 14698.343102009963
4.229999999999991 14751.059683867315
4.259999999999991 14831.833092544697
4.289999999999991 14930.911805376414
4.319999999999991 15037.301012415192
4.349999999999992 15139.950804823064
4.379999999999992 15228.876698472843
4.409999999999992 15296.103257126215
4.439999999999992 15336.345711981061
4.469999999999993 15347.376566917002
4.499999999999993 15330.05947015306
4.529999999999993 15288.067687015562
4.559999999999993 15227.335145740335
4.589999999999994 15155.312778516838
4.619999999999994 15080.118031027034
4.649999999999994 15009.670887593194
4.679999999999994 14950.904648899399
4.709999999999995 14909.127380463517
4.739999999999995 14887.589226842481
4.769999999999995 14887.286375862252
4.799999999999995 14907.006181964574
4.829999999999996 14943.593871282936
4.859999999999996 14992.398639357642
4.889999999999996 15047.842446045166
4.919999999999996 15104.045471631442
4.949999999999997 15155.440981230167
4.979999999999997 15197.318084613227
5.009999999999997 15226.24171518203
5.039999999999997 15240.315072812977
5.069999999999998 15239.268686012016
5.099999999999998 15224.379017645984
5.129999999999998 15198.235538131828
5.159999999999998 15164.39055774429
5.189999999999999 15126.934961712828
5.219999999999999 15090.04845164789
5.249999999999999 15057.57113266483
5.279999999999999 15032.639008115886
5.31 15017.41561664741
5.34 15012.940726024108
5.37 15019.102631192032
5.4 15034.728782724382
5.430000000000001 15057.777137957824
5.460000000000001 15085.602838511695
5.490000000000001 15115.266556609375
5.520000000000001 15143.850906882475
5.550000000000002 15168.75240563972
5.580000000000002 15187.920955147487
5.610000000000002 15200.027485170776
5.640000000000002 15204.546972416501
5.670000000000003 15201.75401977309
5.700000000000003 15192.638132239053
5.730000000000003 15178.753441576253
5.760000000000003 15162.022975962689
5.790000000000004 15144.51985925348
5.820000000000004 15128.249143173844
5.850000000000004 15114.953281244663
5.880000000000004 15105.956782818153
5.910000000000005 15102.06365178522
5.940000000000005 15103.51470697885
5.970000000000005 15110.004371501615
6.000000000000005 15120.750382216262
6.030000000000006 15134.606260017998
6.060000000000006 15150.20155338193
6.090000000000006 15166.094092152412
6.120000000000006 15180.918112985622
6.150000000000007 15193.513829067768
6.180000000000007 15203.026704214972
6.210000000000007 15208.969646472491
6.240000000000007 15211.244010622035
6.270000000000008 15210.121240601578
6.300000000000008 15206.18975630129
6.330000000000008 15200.273860816316
6.360000000000008 15193.335860605957
6.390000000000009 15186.371731245006
6.420000000000009 15180.311553491532
6.450000000000009 15175.93388626906
6.480000000000009 15173.800554383739
6.51000000000001 15174.217294420338
6.54000000000001 15177.22241235567
6.57000000000001 15182.601903797278
6.60000000000001 15189.928078146579
6.6300000000000106 15198.616468875744
6.660000000000011 15207.992931714227
6.690000000000011 15217.36460350657
6.720000000000011 15226.088113984997
6.7500000000000115 15233.62800994335
6.780000000000012 15239.600612420547
6.810000000000012 15243.800701428068
6.840000000000012 15246.208679392608
6.8700000000000125 15246.97986591333
6.900000000000013 15246.418294765546
6.930000000000013 15244.937815237437
6.960000000000013 15243.01564760142
6.9900000000000135 15241.143007053131
7.020000000000014 15239.777337320003
7.050000000000014 15239.30074712131
7.080000000000014 15239.988106105859
7.1100000000000145 15241.987428333648
7.140000000000015 15245.313637333362
7.170000000000015 15249.854927611523
7.200000000000015 15255.390625912258
7.2300000000000155 15261.618218023621
7.260000000000016 15268.18665047388
7.290000000000016 15274.73235607397
7.320000000000016 15280.914581847474
7.3500000000000165 15286.446434026097
7.380000000000017 15291.11918091325
7.410000000000017 15294.818022581538
7.440000000000017 15297.528206399547
7.4700000000000175 15299.331397829072
7.500000000000018 15300.393213529896
7.530000000000018 15300.943165703135
7.560000000000018 15301.249379569397
7.5900000000000185 15301.590751401385
7.620000000000019 15302.229434671091
7.650000000000019 15303.386330913723
7.680000000000019 15305.221635566919
7.7100000000000195 15307.821922181573
7.74000000000002 15311.194562900797
7.77000000000002 15315.27037556272
7.80000000000002 15319.913411208368
7.8300000000000205 15324.937096265148
7.860000000000021 15330.124789982234
7.890000000000021 15335.252326863416
7.920000000000021 15340.110260946069
7.9500000000000215 15344.524189950116
7.980000000000022 15348.37069391932
8.010000000000021 15351.588013322209
8.04000000000002 15354.17993196784
8.07000000000002 15356.212767029145
8.10000000000002 15357.806542990067
8.130000000000019 15359.12085051198
8.160000000000018 15360.337054711264
8.190000000000017 15361.63918023671
8.220000000000017 15363.195110915975
8.250000000000016 15365.140101251964
8.280000000000015 15367.564076583218
8.310000000000015 15370.504127913602
8.340000000000014 15373.94266454701
8.370000000000013 15377.81101872219
8.400000000000013 15381.99852961603
8.430000000000012 15386.365568018167
8.460000000000012 15390.759127950503
8.49000000000001 15395.029108599927
8.52000000000001 15399.043844224856
8.55000000000001 15402.70345451519
8.580000000000009 15405.948932784511
8.610000000000008 15408.767549678294
8.640000000000008 15411.192694334231
8.670000000000007 15413.29791741223
8.700000000000006 15415.18732305483
8.730000000000006 15416.983310364663
8.760000000000005 15418.813027078515
8.790000000000004 15420.795057126656
8.820000000000004 15423.026810210014
8.850000000000003 15425.574741743052
8.880000000000003 15428.468396022261
8.910000000000002 15431.698663959867
8.940000000000001 15435.220235806173
8.97 15438.958348206757
9.0 15442.818054638597
9.03 15446.694712474342
9.059999999999999 15450.4852978404
9.089999999999998 15454.09949845
9.119999999999997 15457.46985760103
9.149999999999997 15460.55856981154
9.179999999999996 15463.360258094888
9.209999999999996 15465.900862711525
9.239999999999995 15468.233157787454
9.269999999999994 15470.430650484592
9.299999999999994 15472.579217471464
9.329999999999993 15474.7671248092
9.359999999999992 15477.07570087126
9.389999999999992 15479.570496741264
9.419999999999991 15482.294632008961
9.44999999999999 15485.265143586821
9.47999999999999 15488.472585858382
9.50999999999999 15491.883241487734
9.539999999999988 15495.444317873811
9.569999999999988 15499.091155290014
9.599999999999987 15502.755002714885
9.629999999999987 15506.371218071148
9.659999999999986 15509.885870937418
9.689999999999985 15513.260963653107
9.719999999999985 15516.478274266436
9.749999999999984 15519.540933013484
9.779999999999983 15522.472631565588
9.809999999999983 15525.313584260102
9.839999999999982 15528.11492850718
9.869999999999981 15530.932615462982
9.89999999999998 15533.821302399854
9.92999999999998 15536.828369992805
9.95999999999998 15539.98834720942
9.989999999999979 15543.319382744005
10.019999999999978 14326.223893151575
10.049999999999978 11511.963176130706
10.079999999999977 7552.325340499116
10.109999999999976 3005.0993596867897
10.139999999999976 -1539.4800912950361
10.169999999999975 -5532.643348509331
10.199999999999974 -8530.639804927976
10.229999999999974 -10240.648548974707
10.259999999999973 -10544.941539237912
10.289999999999973 -9502.225397930142
10.319999999999972 -7327.917753682553
10.349999999999971 -4357.343236702414
10.37999999999997 -997.4853934990059
10.40999999999997 2326.2393433972447
10.43999999999997 5221.669976070678
10.469999999999969 7374.167664915261
10.499999999999968 8578.792677403411
10.529999999999967 8757.375071454135
10.559999999999967 7959.327754652208
10.589999999999966 6347.102696106086
10.619999999999965 4168.937290009187
10.649999999999965 1723.0346444460524
10.679999999999964 -681.8368177022835
10.709999999999964 -2764.1950872894895
10.739999999999963 -4301.5681826552245
10.769999999999962 -5152.650884738138
10.799999999999962 -5267.960244658456
10.829999999999961 -4688.634413800008
10.85999999999996 -3534.5554102849956
10.88999999999996 -1984.0805904344713
10.919999999999959 -248.50610134694492
10.949999999999958 1455.3122116821273
10.979999999999958 2930.8267758996017
11.009999999999957 4023.2602746845396
11.039999999999957 4634.4911893780145
11.069999999999956 4730.136417171463
11.099999999999955 4338.589597921889
11.129999999999955 3542.7736202072406
11.159999999999954 2466.1262155267164
11.189999999999953 1254.9549643585003
11.219999999999953 59.53432210289876
11.249999999999952 -983.7169828415083
11.279999999999951 -1766.969338814552
11.30999999999995 -2221.15454104527
11.33999999999995 -2320.7781787131908
11.36999999999995 -2083.265351685718
11.399999999999949 -1563.3973224821516
11.429999999999948 -843.8926054264389
11.459999999999948 -23.564107296666997
11.489999999999947 795.3769719852789
11.519999999999946 1519.3321921321062
11.549999999999946 2073.3160128841846
11.579999999999945 2407.96525876139
11.609999999999944 2503.0092684171113
11.639999999999944 2367.1066386937055
11.669999999999943 2034.3882904272646
11.699999999999942 1558.386129459173
11.729999999999942 1004.2786691337683
11.759999999999941 440.4909361313413
11.78999999999994 -69.3372309703084
11.81999999999994 -473.1278287147761
11.84999999999994 -735.2286724370571
11.879999999999939 -838.9821958698171
11.909999999999938 -786.9176184282662
11.939999999999937 -598.7600704554309
11.969999999999937 -307.6811238988288
11.999999999999936 44.62258936214282
12.029999999999935 413.3555752616303
12.059999999999935 755.8973299539675
12.089999999999934 1036.3444725623895
12.119999999999933 1228.8786182431525
12.149999999999933 1319.694748519626
12.179999999999932 1307.4165853126376
12.209999999999932 1202.096718982598
12.239999999999931 1023.0508504860036
12.26999999999993 795.8793132833935
12.29999999999993 549.0857628426802
12.329999999999929 310.70119969995693
12.359999999999928 105.28560639243761
12.389999999999928 -48.40338901477422
12.419999999999927 -138.88657616102037
12.449999999999926 -162.50841902803316
12.479999999999926 -123.08427949139327
12.509999999999925 -30.776893373716128
12.539999999999925 99.59776469617645
12.569999999999924 250.59380805992737
12.599999999999923 404.2346664432874
12.629999999999923 543.9572049833924
12.659999999999922 656.2076978581351
12.689999999999921 731.5601001629293
12.71999999999992 765.2902324149682
12.74999999999992 757.4032609309634
12.77999999999992 712.1752695370632
12.809999999999919 637.3043272414666
12.839999999999918 542.7968047516432
12.869999999999918 439.73384833677477
12.899999999999917 339.0542995644769
12.929999999999916 250.47394569894698
12.959999999999916 181.63492781548
12.989999999999915 137.54631481293828
13.019999999999914 120.33603653726422
13.049999999999914 129.31026174055427
13.079999999999913 161.2787035489678
13.109999999999912 211.08912213725154
13.139999999999912 272.29591286653886
13.169999999999911 337.8807167061037
13.19999999999991 400.9624613174859
13.22999999999991 455.4335874462831
13.25999999999991 496.4718483532768
13.289999999999909 520.8909004201263
13.319999999999908 527.313015985296
13.349999999999907 516.1666785310092
13.379999999999907 489.5179851134617
13.409999999999906 450.765298206966
13.439999999999905 404.23404442539015
13.469999999999905 354.7134781618161
13.499999999999904 306.98694518460775
13.529999999999903 265.39213702897143
13.559999999999903 233.44934649837694
13.589999999999902 213.5771286305192
13.619999999999902 206.91815203373326
13.6499999999999 213.28868219788143
13.6799999999999 231.25784340678277
13.7099999999999 258.33719531383326
13.739999999999899 291.2586545646124
13.769999999999898 326.31962991396875
13.799999999999898 359.7568016059374
13.829999999999897 388.1103305024484
13.859999999999896 408.55394615570174
13.889999999999896 419.15068184923035
13.919999999999895 419.0159543347712
13.949999999999894 408.371854849838
13.979999999999894 388.4932270136701
14.009999999999893 361.544448440368
14.039999999999893 330.3299845710904
14.069999999999892 298.0004399639363
14.099999999999891 267.7193451567806
14.12999999999989 242.33169618487526
14.15999999999989 224.08260198582724
14.18999999999989 214.40326645839227
14.219999999999889 213.78879189612348
14.249999999999888 221.77979460080653
14.279999999999887 237.03919244343115
14.309999999999887 257.51325984692625
14.339999999999886 280.6665827134619
14.369999999999886 303.77092324522357
14.399999999999885 324.2068407754614
14.429999999999884 339.74236145317
14.459999999999884 348.7649431838006
14.489999999999883 350.4356076373895
14.519999999999882 344.7534468267748
14.549999999999882 332.53000492305233
14.579999999999881 315.27776878640066
14.60999999999988 295.02450489049784
14.63999999999988 274.0743712948544
14.66999999999988 254.7462935948721
14.699999999999878 239.11817802251085
14.729999999999878 228.80763241480935
14.759999999999877 224.8089792940276
14.789999999999877 227.40471746697688
14.819999999999876 236.16062752851295
14.849999999999875 249.99816130756483
14.879999999999875 267.33483112100595
14.909999999999874 286.27576428542255
14.939999999999873 304.8350454460664
14.969999999999873 321.1603126355991
14.999999999999872 333.73141228168976
15.029999999999871 341.5143735805986
15.05999999999987 344.0553130065961
15.08999999999987 341.5068974451534
15.11999999999987 334.58557870128215
15.149999999999869 324.4696508251052
15.179999999999868 312.65082077146235
15.209999999999868 300.7540460476514
15.239999999999867 290.34866050725896
15.269999999999866 282.77269069758074
15.299999999999866 278.9900328321188
15.329999999999865 279.49599657260364
15.359999999999864 284.2798860271584
15.389999999999864 292.8450907704871
15.419999999999863 304.2868304633496
15.449999999999863 317.4165167787092
15.479999999999862 330.90978634214093
15.509999999999861 343.45928578995716
15.53999999999986 353.9172554841299
15.56999999999986 361.4150123654729
15.59999999999986 365.4453397292222
15.629999999999859 365.89946718562635
15.659999999999858 363.06379540865805
15.689999999999857 357.5670162194282
15.719999999999857 350.29414726314894
15.749999999999856 342.2747528148003
15.779999999999855 334.5623383618149
15.809999999999855 328.12072981841084
15.839999999999854 323.7178661521214
15.869999999999854 321.84410431352705
15.899999999999853 322.66795159895236
15.929999999999852 326.0389393413064
15.959999999999852 331.5175515074724
15.989999999999851 338.43938725122933
16.01999999999985 346.0068326532001
16.04999999999985 353.3910457742735
16.079999999999853 359.82758500116563
16.109999999999854 364.69839500606395
16.139999999999855 367.59123975581474
16.169999999999856 368.3359686334281
16.199999999999857 367.0098273438816
16.22999999999986 363.91647128591296
