# Results for "element" with Id # 51539 for search config "initial" at position: x0: -31.7105263158; y0: 7.78947368421; z0: 167.6667
# time PRESSURE
0.03 1374.969617664787
0.06 3932.067572755002
0.09 7385.49156764984
0.12 11382.937637874445
0.15 15538.639731949905
0.18 19468.53369338254
0.21 22824.194803989834
0.24 25322.709663397483
0.27 26770.033081479905
0.30000000000000004 27075.853728313417
0.33000000000000007 26258.649587686134
0.3600000000000001 24440.472120394315
0.3900000000000001 21832.012075285616
0.42000000000000015 18709.531186047956
0.4500000000000002 15386.143238120141
0.4800000000000002 12180.53222623036
0.5100000000000002 9386.400165966112
0.5400000000000003 7245.716993141406
0.5700000000000003 5928.257040223095
0.6000000000000003 5519.0736947029045
0.6300000000000003 6014.625966795303
0.6600000000000004 7327.375003527364
0.6900000000000004 9297.891508337932
0.7200000000000004 11712.937114352839
0.7500000000000004 14327.583272025762
0.7800000000000005 16889.219047817765
0.8100000000000005 19161.248071977538
0.8400000000000005 20944.37781710879
0.8700000000000006 22093.661068880276
0.9000000000000006 22529.852285056735
0.9300000000000006 22244.18451025096
0.9600000000000006 21296.29982597978
0.9900000000000007 19805.74511023946
1.0200000000000007 17938.06248957292
1.0500000000000007 15887.030719203964
1.0800000000000007 13854.948415975561
1.1100000000000008 12032.978100384476
1.1400000000000008 10583.473015495149
1.1700000000000008 9625.910265573073
1.2000000000000008 9227.606840132952
1.2300000000000009 9399.84998931632
1.260000000000001 10099.517371107699
1.290000000000001 11235.732003608142
1.320000000000001 12680.664960628548
1.350000000000001 14283.272691924585
1.380000000000001 15884.563211070248
1.410000000000001 17332.9218734248
1.440000000000001 18498.08792548935
1.470000000000001 19282.547622669616
1.500000000000001 19629.378443583926
1.5300000000000011 19525.9348269912
1.5600000000000012 19003.164483817745
1.5900000000000012 18130.767389762837
1.6200000000000012 17008.814850677634
1.6500000000000012 15756.769610225174
1.6800000000000013 14501.088072590941
1.7100000000000013 13362.683711236084
1.7400000000000013 12445.49457275798
1.7700000000000014 11827.230093442178
1.8000000000000014 11553.103971239354
1.8300000000000014 11633.015795921645
1.8600000000000014 12042.285067118133
1.8900000000000015 12725.683651651121
1.9200000000000015 13604.21214143269
1.9500000000000015 14583.836872792283
1.9800000000000015 15565.257326121502
2.0100000000000016 16453.72544870958
2.0400000000000014 17167.978790620284
2.070000000000001 17647.47368264541
2.100000000000001 17857.295267760477
2.130000000000001 17790.36948584576
2.1600000000000006 17466.869536191312
2.1900000000000004 16930.99144187264
2.22 16245.522376075072
2.25 15484.827772410206
2.28 14727.020318773344
2.3099999999999996 14046.12191665593
2.3399999999999994 13504.997170166462
2.369999999999999 13149.72237042781
2.399999999999999 13005.880566498132
2.429999999999999 13077.053538726108
2.4599999999999986 13345.553762984471
2.4899999999999984 13775.211848419529
2.5199999999999982 14315.844408756466
2.549999999999998 14908.882810917936
2.579999999999998 15493.552506921791
2.6099999999999977 16012.970334365964
2.6399999999999975 16419.563013293216
2.6699999999999973 16679.303925505923
2.699999999999997 16774.404095972746
2.729999999999997 16704.261208020176
2.7599999999999967 16484.65371775915
2.7899999999999965 16145.34373076452
2.8199999999999963 15726.405702094778
2.849999999999996 15273.710473392617
2.879999999999996 14834.06171463242
2.9099999999999957 14450.490488335521
2.9399999999999955 14158.172627151815
2.9699999999999953 13981.345572359398
2.999999999999995 13931.479775730942
3.029999999999995 14006.821007741577
3.0599999999999947 14193.27415965824
3.0899999999999945 14466.469083722091
3.1199999999999943 14794.737953495727
3.149999999999994 15142.660491085306
3.179999999999994 15474.79310728403
3.2099999999999937 15759.201590147797
3.2399999999999936 15970.455344204609
3.2699999999999934 16091.812616369354
3.299999999999993 16116.42080451863
3.329999999999993 16047.462240526913
3.3599999999999928 15897.287432137291
3.3899999999999926 15685.674923049392
3.4199999999999924 15437.440726202036
3.449999999999992 15179.671940186312
3.479999999999992 14938.884508619618
3.509999999999992 14738.396072611284
3.5399999999999916 14596.166628400324
3.5699999999999914 14523.298910367086
3.599999999999991 14523.313336890282
3.629999999999991 14592.226177366152
3.659999999999991 14719.37781837278
3.6899999999999906 14888.885800542716
3.7199999999999904 15081.539972522522
3.7499999999999902 15276.92464708369
3.77999999999999 15455.54060293245
3.80999999999999 15600.713020380063
3.8399999999999896 15700.105421024084
3.8699999999999894 15746.709056981726
3.8999999999999893 15739.23731109749
3.929999999999989 15681.9200648767
3.959999999999989 15583.752750675776
3.9899999999999887 15457.30771665958
4.019999999999989 15317.254066571593
4.049999999999989 15178.752524158714
4.079999999999989 15055.895867811196
4.10999999999999 14960.350297434714
4.13999999999999 14900.323641406176
4.16999999999999 14879.945573963923
4.19999999999999 14899.098030665642
4.229999999999991 14953.685496321536
4.259999999999991 15036.292086323965
4.289999999999991 15137.134412769483
4.319999999999991 15245.195987176738
4.349999999999992 15349.417118257727
4.379999999999992 15439.815809312135
4.409999999999992 15508.430336834343
4.439999999999992 15549.998696865146
4.469999999999993 15562.322173678347
4.499999999999993 15546.295658517436
4.529999999999993 15505.622571098436
4.559999999999993 15446.262615802409
4.589999999999994 15375.685583557763
4.619999999999994 15302.019175753918
4.649999999999994 15233.184373938926
4.679999999999994 15176.106610471292
4.709999999999995 15136.078624191838
4.739999999999995 15116.329891293322
4.769999999999995 15117.833197545831
4.799999999999995 15139.352499590092
4.829999999999996 15177.71222178922
4.859999999999996 15228.245493825523
4.889999999999996 15285.364415318934
4.919999999999996 15343.186235869049
4.949999999999997 15396.14811684703
4.979999999999997 15439.548999339902
5.009999999999997 15469.968082459236
5.039999999999997 15485.525319972645
5.069999999999998 15485.968469115205
5.099999999999998 15472.589730645408
5.129999999999998 15447.99098734444
5.159999999999998 15415.732511958882
5.189999999999999 15379.908171362777
5.219999999999999 15344.695567163646
5.249999999999999 15313.928195315422
5.279999999999999 15290.73197293091
5.31 15277.258296865333
5.34 15274.533945151901
5.37 15282.434939125751
5.4 15299.778687363942
5.430000000000001 15324.516369939187
5.460000000000001 15353.999952773524
5.490000000000001 15385.290671088553
5.520000000000001 15415.475122758098
5.550000000000002 15441.956613758071
5.580000000000002 15462.69393268523
5.610000000000002 15476.367403867072
5.640000000000002 15482.460429838236
5.670000000000003 15481.254402201888
5.700000000000003 15473.74360959403
5.730000000000003 15461.484798773985
5.760000000000003 15446.401184261704
5.790000000000004 15430.563655624503
5.820000000000004 15415.97305581281
5.850000000000004 15404.365558980422
5.880000000000004 15397.05837635799
5.910000000000005 15394.84849492967
5.940000000000005 15397.970818968653
5.970000000000005 15406.115499085696
6.000000000000005 15418.49802566374
6.030000000000006 15433.971724295925
6.060000000000006 15451.167902675812
6.090000000000006 15468.64770651217
6.120000000000006 15485.049612376606
6.150000000000007 15499.21843268436
6.180000000000007 15510.304231137778
6.210000000000007 15517.823928095313
6.240000000000007 15521.682026287037
6.270000000000008 15522.151788511641
6.300000000000008 15519.821744567651
6.330000000000008 15515.515024897892
6.360000000000008 15510.19170490531
6.390000000000009 15504.84484644742
6.420000000000009 15500.401151999911
6.450000000000009 15497.635630272689
6.480000000000009 15497.106892299153
6.51000000000001 15499.118200557285
6.54000000000001 15503.706490958511
6.57000000000001 15510.657665826495
6.60000000000001 15519.544982548137
6.6300000000000106 15529.785490871547
6.660000000000011 15540.707158195703
6.690000000000011 15551.619732029725
6.720000000000011 15561.882465682225
6.7500000000000115 15570.962280724905
6.780000000000012 15578.477371509929
6.810000000000012 15584.223624435659
6.840000000000012 15588.181808024201
6.8700000000000125 15590.506937997017
6.900000000000013 15591.502168863251
6.930000000000013 15591.579968561053
6.960000000000013 15591.21587125679
6.9900000000000135 15590.899307296164
7.020000000000014 15591.086076378491
7.050000000000014 15592.157172605477
7.080000000000014 15594.387014683905
7.1100000000000145 15597.92381565414
7.140000000000015 15602.783263716392
7.170000000000015 15608.854737779568
7.200000000000015 15615.91910667664
7.2300000000000155 15623.675653573671
7.260000000000016 15631.775133461088
7.290000000000016 15639.855563545187
7.320000000000016 15647.577356643196
7.3500000000000165 15654.654347264153
7.380000000000017 15660.87817955541
7.410000000000017 15666.134053691147
7.440000000000017 15670.406905385196
7.4700000000000175 15673.777836236412
7.500000000000018 15676.411662556793
7.530000000000018 15678.536987177731
7.560000000000018 15680.42112679363
7.5900000000000185 15682.342502151945
7.620000000000019 15684.563208853564
7.650000000000019 15687.304434374637
7.680000000000019 15690.726830360543
7.7100000000000195 15694.917503520397
7.74000000000002 15699.884536418494
7.77000000000002 15705.559532602247
7.80000000000002 15711.80737898696
7.8300000000000205 15718.442174876043
7.860000000000021 15725.247644298717
7.890000000000021 15731.999739679255
7.920000000000021 15738.489033299895
7.9500000000000215 15744.54102497006
7.980000000000022 15750.032114617707
8.010000000000021 15754.900159550874
8.04000000000002 15759.148373869712
8.07000000000002 15762.842458970132
8.10000000000002 15766.101781246041
8.130000000000019 15769.085355489764
8.160000000000018 15771.974235884441
8.190000000000017 15774.9523562855
8.220000000000017 15778.187634578173
8.250000000000016 15781.815412170505
8.280000000000015 15785.9257851406
8.310000000000015 15790.556043518329
8.340000000000014 15795.688755917185
8.370000000000013 15801.255451898878
8.400000000000013 15807.145627714053
8.430000000000012 15813.21970178833
8.460000000000012 15819.324636372745
8.49000000000001 15825.31027514021
8.52000000000001 15831.045071403967
8.55000000000001 15836.429314369303
8.580000000000009 15841.404352257492
8.610000000000008 15845.95752696872
8.640000000000008 15850.121831745415
8.670000000000007 15853.970546384538
8.700000000000006 15857.60793726762
8.730000000000006 15861.157030204136
8.760000000000005 15864.745860637635
8.790000000000004 15868.493900787136
8.820000000000004 15872.499450121679
8.850000000000003 15876.829897300984
8.880000000000003 15881.515728221682
8.910000000000002 15886.548722118854
8.940000000000001 15891.884329242288
8.97 15897.448070651064
9.0 15903.144812806317
9.03 15908.869740083182
9.059999999999999 15914.519982727274
9.089999999999998 15920.005713169161
9.119999999999997 15925.259667645258
9.149999999999997 15930.243819803156
9.179999999999996 15934.952348736992
9.209999999999996 15939.410812512946
9.239999999999995 15943.67193338337
9.269999999999994 15947.809039763653
9.299999999999994 15951.907528258918
9.329999999999993 15956.054902456553
9.359999999999992 15960.331369694264
9.389999999999992 15964.801366811042
9.419999999999991 15969.507093682514
9.44999999999999 15974.464827641794
9.47999999999999 15979.664360407523
9.50999999999999 15985.071199744034
9.539999999999988 15990.631597087046
9.569999999999988 15996.2795015265
9.599999999999987 16001.94468660477
9.629999999999987 16007.560860919943
9.659999999999986 16013.072528989409
9.689999999999985 16018.44039558545
9.719999999999985 16023.645155715745
9.749999999999984 16028.688938946976
9.779999999999983 16033.594521823828
9.809999999999983 16038.401426760258
9.839999999999982 16043.160476115881
9.869999999999981 16047.927557616244
9.89999999999998 16052.75725253875
9.92999999999998 16057.696957177064
9.95999999999998 16062.781695895965
9.989999999999979 16068.030659909817
10.019999999999978 14841.80739702067
10.049999999999978 12005.460024010226
10.079999999999977 8016.823968201508
10.109999999999976 3439.6939990166725
10.139999999999976 -1130.871911915177
10.169999999999975 -5143.054389664168
10.199999999999974 -8151.896234026365
10.229999999999974 -9864.904309207779
10.259999999999973 -10165.710110330332
10.289999999999973 -9114.886650937688
10.319999999999972 -6929.801696990469
10.349999999999971 -3947.557225653384
10.37999999999997 -576.6377320063242
10.40999999999997 2756.3237158990237
10.43999999999997 5658.216196415559
10.469999999999969 7813.728881523427
10.499999999999968 9017.581361148797
10.529999999999967 9191.663758300572
10.559999999999967 8385.893315491829
10.589999999999966 6763.6458635853205
10.619999999999965 4574.394962935214
10.649999999999965 2117.716676770234
10.679999999999964 -296.32104470079713
10.709999999999964 -2385.2085224960747
10.739999999999963 -3925.8661521483914
10.769999999999962 -4776.873327416949
10.799999999999962 -4889.11327964324
10.829999999999961 -4304.4851874682745
10.85999999999996 -3143.8866619885907
10.88999999999996 -1586.7772754386153
10.919999999999959 154.52515340918725
10.949999999999958 1862.3656045488035
10.979999999999958 3339.716023117909
11.009999999999957 4431.676270260806
11.039999999999957 5040.343025894567
11.069999999999956 5131.829259032148
11.099999999999955 4735.2051965809715
11.129999999999955 3934.1413281617215
11.159999999999954 2852.7871755742444
11.189999999999953 1638.0362131257652
11.219999999999953 440.55854591367233
11.249999999999952 -603.0544477618395
11.279999999999951 -1385.024811431666
11.30999999999995 -1836.5318151527224
11.33999999999995 -1932.474554288324
11.36999999999995 -1690.7526928290204
11.399999999999949 -1166.6354062769367
11.429999999999948 -443.2784789892537
11.459999999999948 380.169605717334
11.489999999999947 1201.296991099489
11.519999999999946 1926.4528598456861
11.549999999999946 2480.741080951036
11.579999999999945 2815.005930797542
11.609999999999944 2909.2664649671897
11.639999999999944 2772.50904131782
11.669999999999943 2439.1862798658576
11.699999999999942 1963.10451570944
11.729999999999942 1409.6381107501913
11.759999999999941 847.309861231195
11.78999999999994 339.7534029600698
11.81999999999994 -61.055120929314725
11.84999999999994 -319.64123353617106
11.879999999999939 -419.5730140030885
11.909999999999938 -363.6212866597198
11.939999999999937 -171.73729882105377
11.969999999999937 122.72426124396195
11.999999999999936 477.9449808607617
12.029999999999935 849.0788003858055
12.059999999999935 1193.5260302639902
12.089999999999934 1475.4655532333609
12.119999999999933 1669.2062241586154
12.149999999999933 1761.0947280005507
12.179999999999932 1749.908474176388
12.209999999999932 1645.835498278078
12.239999999999931 1468.2917343307288
12.26999999999993 1242.9325141636837
12.29999999999993 998.2672167850949
12.329999999999929 762.2861678120602
12.359999999999928 559.4703396754462
12.389999999999928 408.472502442618
12.419999999999927 320.65623346874656
12.449999999999926 299.56636887605475
12.479999999999926 341.29596471070954
12.509999999999925 435.6205412638499
12.539999999999925 567.6970475452953
12.569999999999924 720.0876379357022
12.599999999999923 874.8549895549495
12.629999999999923 1015.4991558102203
12.659999999999922 1128.5441979755933
12.689999999999921 1204.6460434482597
12.71999999999992 1239.1563825450414
12.74999999999992 1232.1417344220288
12.77999999999992 1187.9172501859848
12.809999999999919 1114.1941061037423
12.839999999999918 1020.9671023738345
12.869999999999918 919.2852556532649
12.899999999999917 820.0412702521912
12.929999999999916 732.8981587263099
12.959999999999916 665.4463650931799
12.989999999999915 622.6497334458154
13.019999999999914 606.6029210002793
13.049999999999914 616.5930369016712
13.079999999999913 649.425580938751
13.109999999999912 699.9570548109623
13.139999999999912 761.760723364424
13.169999999999911 827.8477569265988
13.19999999999991 891.3746157646799
13.22999999999991 946.2741500724402
13.25999999999991 987.7608508039268
13.289999999999909 1012.6760278184258
13.319999999999908 1019.6574256316976
13.349999999999907 1009.1344992461071
13.379999999999907 983.1614511431858
13.409999999999906 945.116073495779
13.439999999999905 899.300598702026
13.469999999999905 850.4848707753122
13.499999999999904 803.4379501953881
13.529999999999903 762.4882369882496
13.559999999999903 731.1490961715101
13.589999999999902 711.8350999229226
13.619999999999902 705.6909404577223
13.6499999999999 712.542635780492
13.6799999999999 730.9743462174607
13.7099999999999 758.5159891378896
13.739999999999899 791.9203600263232
13.769999999999898 827.5046013760694
13.799999999999898 861.5211232351387
13.829999999999897 890.5215502273278
13.859999999999896 911.6843727622781
13.889999999999896 923.0709241874889
13.919999999999895 923.7891137432688
13.949999999999894 914.0498972385661
13.979999999999894 895.1137111112572
14.009999999999893 869.1308834698508
14.039999999999893 838.8963615020746
14.069999999999892 807.5509989425623
14.099999999999891 778.2495247891541
14.12999999999989 753.8334045483199
14.15999999999989 736.5474425672361
14.18999999999989 727.8236977738093
14.219999999999889 728.1564650744183
14.249999999999888 737.0809311328288
14.279999999999887 753.2501719853644
14.309999999999887 774.5997581079656
14.339999999999886 798.5850133404718
14.369999999999886 822.4675749476967
14.399999999999885 843.6155852660598
14.429999999999884 859.7828975623455
14.459999999999884 869.3406219451497
14.489999999999883 871.4336109655715
14.519999999999882 866.0475095932857
14.549999999999882 853.9838874365366
14.579999999999881 836.7488400929956
14.60999999999988 816.3670754416756
14.63999999999988 795.143441961322
14.66999999999988 775.4008644250118
14.699999999999878 759.2248854953764
14.729999999999878 748.2430509103342
14.759999999999877 743.46122260687
14.789999999999877 745.1739020509643
14.819999999999876 752.9572572744216
14.849999999999875 765.7412727809633
14.879999999999875 781.9504549889192
14.909999999999874 799.6961332017994
14.939999999999873 816.9976190861489
14.969999999999873 832.0061971941086
14.999999999999872 843.2043843324656
15.029999999999871 849.5606234731162
15.05999999999987 850.6247540031569
15.08999999999987 846.5543749343241
15.11999999999987 838.0727519132897
15.149999999999869 826.3656908408511
15.179999999999868 812.9313542325361
15.209999999999868 799.3996971290568
15.239999999999867 787.343729349861
15.269999999999866 778.1049396078902
15.299999999999866 772.6519761376956
15.329999999999865 771.486861501024
15.359999999999864 774.6078769998529
15.389999999999864 781.5304641614266
15.419999999999863 791.36220881305
15.449999999999863 802.9232079176123
15.479999999999862 814.8923787697878
15.509999999999861 825.9617155753225
15.53999999999986 834.98140718106
15.56999999999986 841.0815896854891
15.59999999999986 843.7555946310449
15.629999999999859 842.8983137890737
15.659999999999858 838.8000382777992
15.689999999999857 832.0943191028877
15.719999999999857 823.6707029656752
15.749999999999856 814.5624378598469
15.779999999999855 805.8243140313473
15.809999999999855 798.4153458115508
15.839999999999854 793.0949463742287
15.869999999999854 790.3454770107244
15.899999999999853 790.3300211501951
15.929999999999852 792.8922881613263
15.959999999999852 797.5886859897879
15.989999999999851 803.7522128664281
16.01999999999985 810.5810003155582
16.04999999999985 817.2380148873941
16.079999999999853 822.9479995001604
16.109999999999854 827.0816226232444
16.139999999999855 829.2181350722851
16.169999999999856 829.182144970485
16.199999999999857 827.0499889900901
16.22999999999986 823.1273836317757
16.25999999999986 817.9046204619854
16.28999999999986 811.9923569111737
