# Results for "element" with Id # 30813 for search config "initial" at position: x0: -4.6; y0: 34.9; z0: 167.6667
# time PRESSURE
0.03 1353.9202199351216
0.06 3871.8136194172716
0.09 7272.0893779153885
0.12 11207.626916493653
0.15 15298.442317961239
0.18 19166.451595592327
0.21 22468.952477048148
0.24 24927.978943615264
0.27 26353.120961816327
0.30000000000000004 26655.919408435067
0.33000000000000007 25854.623268548334
0.3600000000000001 24068.938154460004
0.3900000000000001 21505.353182806277
0.42000000000000015 18434.607883555604
0.4500000000000002 15163.69248705661
0.4800000000000002 12005.346435863423
0.5100000000000002 9248.220392010642
0.5400000000000003 7130.671632797203
0.5700000000000003 5820.6179930789
0.6000000000000003 5403.089641851277
0.6300000000000003 5876.219477148905
0.6600000000000004 7155.535649379819
0.6900000000000004 9085.655019733375
0.7200000000000004 11457.886726493798
0.7500000000000004 14031.851159294227
0.7800000000000005 16559.003730344553
0.8100000000000005 18805.90416313599
0.8400000000000005 20575.17943137833
0.8700000000000006 21722.383825570567
0.9000000000000006 22167.3517941489
0.9300000000000006 21899.155944443504
0.9600000000000006 20974.383127279918
0.9900000000000007 19509.080435501342
1.0200000000000007 17665.33008114755
1.0500000000000007 15633.92923592776
1.0800000000000007 13615.003276243486
1.1100000000000008 11798.534484173058
1.1400000000000008 10346.720833959953
1.1700000000000008 9379.806103939582
1.2000000000000008 8966.589583681289
1.2300000000000009 9120.290673304393
1.260000000000001 9799.88035480428
1.290000000000001 10916.467098415016
1.320000000000001 12343.876410326167
1.350000000000001 13932.23573483845
1.380000000000001 15523.170442918372
1.410000000000001 16965.142225790376
1.440000000000001 18127.50938645276
1.470000000000001 18912.052041194027
1.500000000000001 19260.969791356612
1.5300000000000011 19160.711294938486
1.5600000000000012 18641.403947075323
1.5900000000000012 17772.080724871237
1.6200000000000012 16652.32171760584
1.6500000000000012 15401.260948615309
1.6800000000000013 14145.155325394904
1.7100000000000013 13004.811452948532
1.7400000000000013 12084.12708236062
1.7700000000000014 11460.827762200028
1.8000000000000014 11180.203096786525
1.8300000000000014 11252.30066586544
1.8600000000000014 11652.669422406305
1.8900000000000015 12326.393461405678
1.9200000000000015 13194.855041373314
1.9500000000000015 14164.443546620667
1.9800000000000015 15136.283944524352
2.0100000000000016 16016.012724443794
2.0400000000000014 16722.6704616294
2.070000000000001 17195.902986616366
2.100000000000001 17400.85308204155
2.130000000000001 17330.368043664792
2.1600000000000006 17004.416827366702
2.1900000000000004 16466.887132907257
2.22 15780.183765407659
2.25 15018.251349339287
2.28 14258.78073925299
2.3099999999999996 13575.408220130777
2.3399999999999994 13030.683354673645
2.369999999999999 12670.467628573186
2.399999999999999 12520.25134499021
2.429999999999999 12583.658204344065
2.4599999999999986 12843.17691385536
2.4899999999999984 13262.935255058728
2.5199999999999982 13793.140958782416
2.549999999999998 14375.67091290569
2.579999999999998 14950.202679731876
2.6099999999999977 15460.26044056239
2.6399999999999975 15858.585276075517
2.6699999999999973 16111.333441176184
2.699999999999997 16200.74414438552
2.729999999999997 16126.084782779797
2.7599999999999967 15902.862223635584
2.7899999999999965 15560.460886618632
2.8199999999999963 15138.520227347337
2.849999999999996 14682.474413715634
2.879999999999996 14238.742667638373
2.9099999999999957 13850.068873398157
2.9399999999999955 13551.469210871011
2.9699999999999953 13367.161214946784
2.999999999999995 13308.729245264498
3.029999999999995 13374.644701042474
3.0599999999999947 13551.115748320768
3.0899999999999945 13814.113003368953
3.1199999999999943 14132.305889993786
3.149999999999994 14470.570557405279
3.179999999999994 14793.689655762686
3.2099999999999937 15069.865684723725
3.2399999999999936 15273.70709501514
3.2699999999999934 15388.416313583024
3.299999999999993 15407.002347694015
3.329999999999993 15332.44668358109
3.3599999999999928 15176.86179462375
3.3899999999999926 14959.778443114683
3.4199999999999924 14705.78193116842
3.449999999999992 14441.769476318099
3.479999999999992 14194.126089010493
3.509999999999992 13986.108226184504
3.5399999999999916 13835.687277848472
3.5699999999999914 13754.044780572842
3.599999999999991 13744.835007812057
3.629999999999991 13804.245634402785
3.659999999999991 13921.805347240013
3.6899999999999906 14081.81546012944
3.7199999999999904 14265.225605995087
3.7499999999999902 14451.740068959065
3.77999999999999 14621.929427185174
3.80999999999999 14759.134372027116
3.8399999999999896 14850.98143389144
3.8699999999999894 14890.379598669839
3.8999999999999893 14875.926845884234
3.929999999999989 14811.71919128653
3.959999999999989 14706.615367608407
3.9899999999999887 14573.063290371738
4.019999999999989 14425.632631509881
4.049999999999989 14279.419152410144
4.079999999999989 14148.490030306875
4.10999999999999 14044.525678168378
4.13999999999999 13975.784267216748
4.16999999999999 13946.474614972005
4.19999999999999 13956.576470176995
4.229999999999991 14002.099300247892
4.259999999999991 14075.727451722767
4.289999999999991 14167.762696112724
4.319999999999991 14267.250740532481
4.349999999999992 14363.165888565094
4.379999999999992 14445.530046759995
4.409999999999992 14506.356905569102
4.439999999999992 14540.335860552987
4.469999999999993 14545.202507181526
4.499999999999993 14521.77745540635
4.529999999999993 14473.69000725394
4.559999999999993 14406.834295890127
4.589999999999994 14328.629755752383
4.619999999999994 14247.173727365334
4.649999999999994 14170.379293909504
4.679999999999994 14105.186284079213
4.709999999999995 14056.92131986209
4.739999999999995 14028.862523292144
4.769999999999995 14022.03994212078
4.799999999999995 14035.276780137205
4.829999999999996 14065.452160018496
4.859999999999996 14107.943798045886
4.889999999999996 14157.194249594824
4.919999999999996 14207.334675773345
4.949999999999997 14252.79917960653
4.979999999999997 14288.868312443923
5.009999999999997 14312.090815072512
5.039999999999997 14320.548614510653
5.069999999999998 14313.948639383509
5.099999999999998 14293.544367423532
5.129999999999998 14261.906137457423
5.159999999999998 14222.57265164104
5.189999999999999 14179.627690257583
5.219999999999999 14137.251566512148
5.249999999999999 14099.292587041138
5.279999999999999 14068.900961308555
5.31 14048.257715137846
5.34 14038.422307929588
5.37 14039.302829391298
5.4 14049.74399445588
5.430000000000001 14067.71741630794
5.460000000000001 14090.587172151772
5.490000000000001 14115.417800534131
5.520000000000001 14139.29018779781
5.550000000000002 14159.592775300449
5.580000000000002 14174.261608648221
5.610000000000002 14181.953218458175
5.640000000000002 14182.132768299221
5.670000000000003 14175.067942431902
5.700000000000003 14161.742708205642
5.730000000000003 14143.706560440492
5.760000000000003 14122.879930953175
5.790000000000004 14101.336779992538
5.820000000000004 14081.086701395121
5.850000000000004 14063.882855044894
5.880000000000004 14051.063169572986
5.910000000000005 14043.444071964888
5.940000000000005 14041.276765818862
5.970000000000005 14044.263181761886
6.000000000000005 14051.624894955976
6.030000000000006 14062.216493296753
6.060000000000006 14074.666044771071
6.090000000000006 14087.527770325392
6.120000000000006 14099.431146539675
6.150000000000007 14109.21094546664
6.180000000000007 14116.0065563433
6.210000000000007 14119.324468235358
6.240000000000007 14119.059978933936
6.270000000000008 14115.48014464905
6.300000000000008 14109.172648225544
6.330000000000008 14100.961886341607
6.360000000000008 14091.810959980605
6.390000000000009 14082.717052057618
6.420000000000009 14074.61284367367
6.450000000000009 14068.281801780564
6.480000000000009 14064.291248875583
6.51000000000001 14062.951277548713
6.54000000000001 14064.302143789831
6.57000000000001 14068.128761611471
6.60000000000001 14074.000662946626
6.6300000000000106 14081.331291289998
6.660000000000011 14089.443843749996
6.690000000000011 14097.640570741269
6.720000000000011 14105.273040503133
6.7500000000000115 14111.801152458534
6.780000000000012 14116.837202539538
6.810000000000012 14120.172656307783
6.840000000000012 14121.785237989941
6.8700000000000125 14121.828070865075
6.900000000000013 14120.603322402852
6.930000000000013 14118.523678349171
6.960000000000013 14116.06591860604
6.9900000000000135 14113.72157757323
7.020000000000014 14111.948499508315
7.050000000000014 14111.127904497811
7.080000000000014 14111.531926507341
7.1100000000000145 14113.303876008398
7.140000000000015 14116.45212701315
7.170000000000015 14120.856910720157
7.200000000000015 14126.288651785871
7.2300000000000155 14132.435210143898
7.260000000000016 14138.935368256327
7.290000000000016 14145.41544211857
7.320000000000016 14151.524891544817
7.3500000000000165 14156.967377669018
7.380000000000017 14161.52523298304
7.410000000000017 14165.07571051256
7.440000000000017 14167.597218200099
7.4700000000000175 14169.16522424936
7.500000000000018 14169.94047662301
7.530000000000018 14170.14938254652
7.560000000000018 14170.058002940674
7.5900000000000185 14169.942875817342
7.620000000000019 14170.063101769689
7.650000000000019 14170.636507844032
7.680000000000019 14171.820784109033
7.7100000000000195 14173.700842265778
7.74000000000002 14176.28311887008
7.77000000000002 14179.498301837462
7.80000000000002 14183.210894595584
7.8300000000000205 14187.235475411962
7.860000000000021 14191.357252584396
7.890000000000021 14195.354458766404
7.920000000000021 14199.020509520404
7.9500000000000215 14202.18413543851
7.980000000000022 14204.725271040548
8.010000000000021 14206.58598992967
8.04000000000002 14207.774488075782
8.07000000000002 14208.361699697874
8.10000000000002 14208.47226487763
8.130000000000019 14208.270086884024
8.160000000000018 14207.939989369115
8.190000000000017 14207.668740144243
8.220000000000017 14207.626681150847
8.250000000000016 14207.951525152694
8.280000000000015 14208.735357751018
8.310000000000015 14210.016997130206
8.340000000000014 14211.780257511924
8.370000000000013 14213.957540804877
8.400000000000013 14216.438801856
8.430000000000012 14219.084706064645
8.460000000000012 14221.742486267638
8.49000000000001 14224.262942497819
8.52000000000001 14226.512958257876
8.55000000000001 14228.39005459813
8.580000000000009 14229.831858359295
8.610000000000008 14230.823209765656
8.640000000000008 14231.397100279199
8.670000000000007 14231.626613270164
8.700000000000006 14231.614059984115
8.730000000000006 14231.478607598816
8.760000000000005 14231.343313273843
8.790000000000004 14231.322600234565
8.820000000000004 14231.510153892072
8.850000000000003 14231.96900322902
8.880000000000003 14232.725060561646
8.910000000000002 14233.765582050903
8.940000000000001 14235.043504145895
8.97 14236.484388013328
9.0 14237.995876694973
9.03 14239.476454361848
9.059999999999999 14240.82572183798
9.089999999999998 14241.955601119676
9.119999999999997 14242.802413465779
9.149999999999997 14243.334339541085
9.179999999999996 14243.553885658872
9.209999999999996 14243.49528880338
9.239999999999995 14243.218808347712
9.269999999999994 14242.806202667798
9.299999999999994 14242.352019905975
9.329999999999993 14241.954531185442
9.359999999999992 14241.7060429139
9.389999999999992 14241.682813401789
9.419999999999991 14241.937992418929
9.44999999999999 14242.49795713325
9.47999999999999 14243.362308229758
9.50999999999999 14244.505852604336
9.539999999999988 14245.884143018171
9.569999999999988 14247.441379105614
9.599999999999987 14249.116800815078
9.629999999999987 14250.853226578936
9.659999999999986 14252.603171383696
9.689999999999985 14254.333829553867
9.719999999999985 14256.03105898053
9.749999999999984 14257.701562586344
9.779999999999983 14259.372004065966
9.809999999999983 14261.083604523927
9.839999999999982 14262.886022476456
9.869999999999981 14264.832710013132
9.89999999999998 14266.97621530857
9.92999999999998 14269.361642783431
9.95999999999998 14272.019592203502
9.989999999999979 14274.962506658478
10.019999999999978 13080.18265366196
10.049999999999978 10312.217808797792
10.079999999999977 6408.8043101490775
10.109999999999976 1917.345676813809
10.139999999999976 -2577.645333507685
10.169999999999975 -6529.6900693515745
10.199999999999974 -9495.654316806798
10.229999999999974 -11182.754440758206
10.259999999999973 -11472.939058794424
10.289999999999973 -10424.009183821236
10.319999999999972 -8249.730501990922
10.349999999999971 -5283.146010082575
10.37999999999997 -1928.6805839532435
10.40999999999997 1390.6868094418996
10.43999999999997 4284.821341107341
10.469999999999969 6440.538328760419
10.499999999999968 7653.714142171855
10.529999999999967 7846.330107566724
10.559999999999967 7067.265088680407
10.589999999999966 5477.780648795728
10.619999999999965 3324.384001872747
10.649999999999965 903.2337388173078
10.679999999999964 -1478.9581583088152
10.709999999999964 -3542.4605071706874
10.739999999999963 -5065.979147028214
10.769999999999962 -5908.661010972366
10.799999999999962 -6020.730990737794
10.829999999999961 -5442.397646085361
10.85999999999996 -4292.169121712638
10.88999999999996 -2746.8200503260296
10.919999999999959 -1016.0973810522665
10.949999999999958 684.4392757192373
10.979999999999958 2159.1259891898826
11.009999999999957 3253.575783036832
11.039999999999957 3869.559130837687
11.069999999999956 3972.156809538804
11.099999999999955 3588.9272731992032
11.129999999999955 2801.801784934844
11.159999999999954 1733.2097134631038
11.189999999999953 528.5632471603835
11.219999999999953 -662.5375420124121
11.249999999999952 -1704.0557852259647
11.279999999999951 -2488.223260285654
11.30999999999995 -2945.7302871834795
11.33999999999995 -3050.594478806417
11.36999999999995 -2819.5930396191598
11.399999999999949 -2306.7952072485723
11.429999999999948 -1594.2416640867066
11.459999999999948 -780.1878603966155
11.489999999999947 33.52752562932187
11.519999999999946 753.4587180967403
11.549999999999946 1304.5478551715814
11.579999999999945 1637.1567338726813
11.609999999999944 1730.5802486777075
11.639999999999944 1592.9444027185486
11.669999999999943 1257.8143929106045
11.699999999999942 778.1905605236806
11.729999999999942 218.81001399388742
11.759999999999941 -352.2126333634159
11.78999999999994 -871.394747919559
11.81999999999994 -1286.6616813148041
11.84999999999994 -1562.2290684126594
11.879999999999939 -1681.2054390754001
11.909999999999938 -1645.826388708811
11.939999999999937 -1475.5073545776447
11.969999999999937 -1203.1383718404747
11.999999999999936 -870.1962261962844
12.029999999999935 -521.339470003413
12.059999999999935 -199.142235543746
12.089999999999934 60.45578269025029
12.119999999999933 231.5359961084897
12.149999999999933 300.15452586095546
12.179999999999932 264.78850042284563
12.209999999999932 135.3666170260672
12.239999999999931 -68.86698160784289
12.26999999999993 -322.309854136391
12.29999999999993 -596.3691598958396
12.329999999999929 -862.8350853934237
12.359999999999928 -1096.8876339768594
12.389999999999928 -1279.4474721797706
12.419999999999927 -1398.6789524886885
12.449999999999926 -1450.5680206220916
12.479999999999926 -1438.6023034116756
12.509999999999925 -1372.6765750851953
12.539999999999925 -1267.4180895073316
12.569999999999924 -1140.1742212481881
12.599999999999923 -1008.9158283036272
12.629999999999923 -890.2860961609139
12.659999999999922 -797.9892600839103
12.689999999999921 -741.6509277705684
12.71999999999992 -726.2187322923231
12.74999999999992 -751.9101124532983
12.77999999999992 -814.6460091298113
12.809999999999919 -906.8795626424362
12.839999999999918 -1018.7017386965717
12.869999999999918 -1139.070538678459
12.899999999999917 -1257.0319294992219
12.929999999999916 -1362.810582092979
12.959999999999916 -1448.6775387946973
12.989999999999915 -1509.5201881088865
13.019999999999914 -1543.1093487449775
13.049999999999914 -1550.047527112415
13.079999999999913 -1533.4499253147196
13.109999999999912 -1498.4119745769713
13.139999999999912 -1451.3385537120212
13.169999999999911 -1399.2397269911871
13.19999999999991 -1349.0220814469626
13.22999999999991 -1306.8439019134403
13.25999999999991 -1277.589970640362
13.289999999999909 -1264.5085963561485
13.319999999999908 -1269.0305799945274
13.349999999999907 -1290.7600918092635
13.379999999999907 -1327.642375924466
13.409999999999906 -1376.2768094002913
13.439999999999905 -1432.33289791042
13.469999999999905 -1491.0283918494436
13.499999999999904 -1547.5957105737689
13.529999999999903 -1597.7173888549512
13.559999999999903 -1637.8864937278622
13.589999999999902 -1665.692026434486
13.619999999999902 -1680.0112861859607
13.6499999999999 -1681.065934977924
13.6799999999999 -1670.3334196014478
13.7099999999999 -1650.3566628672288
13.739999999999899 -1624.468174988232
13.769999999999898 -1596.4335155247015
13.799999999999898 -1570.0745727306585
13.829999999999897 -1548.9048876333009
13.859999999999896 -1535.793732500811
13.889999999999896 -1532.7097526222506
13.919999999999895 -1540.555208163432
13.949999999999894 -1559.115209997431
13.979999999999894 -1587.110890819568
14.009999999999893 -1622.3652234565268
14.039999999999893 -1662.0665439759996
14.069999999999892 -1703.0523255685227
14.099999999999891 -1742.1430684400907
14.12999999999989 -1776.4824548871093
14.15999999999989 -1803.8145318141037
14.18999999999989 -1822.688605218721
14.219999999999889 -1832.5774297270477
14.249999999999888 -1833.8965713694593
14.279999999999887 -1827.9289306894293
14.309999999999887 -1816.6623271631133
14.339999999999886 -1802.554028083337
14.369999999999886 -1788.2317786703734
14.399999999999885 -1776.1934011915243
14.429999999999884 -1768.537902884093
14.459999999999884 -1766.733093984853
14.489999999999883 -1771.4669124257698
14.519999999999882 -1782.5896323696013
14.549999999999882 -1799.1444689774332
14.579999999999881 -1819.4831162695382
14.60999999999988 -1841.4570517419377
14.63999999999988 -1862.6630202962526
14.66999999999988 -1880.7083537903331
14.699999999999878 -1893.4708712971164
14.729999999999878 -1899.3134902186066
14.759999999999877 -1897.2461779344553
14.789999999999877 -1887.0129378843203
14.819999999999876 -1869.0910984793566
14.849999999999875 -1844.6200880222827
14.879999999999875 -1815.2574569126052
14.909999999999874 -1782.9831326327205
14.939999999999873 -1749.8739346828809
14.969999999999873 -1717.8757915471738
14.999999999999872 -1688.60368397865
15.029999999999871 -1663.1847696552395
15.05999999999987 -1642.16443747091
15.08999999999987 -1625.4771393596047
15.11999999999987 -1612.4904048091207
15.149999999999869 -1602.1038300689956
15.179999999999868 -1592.8950345346934
15.209999999999868 -1583.302719429396
15.239999999999867 -1571.8177759769687
15.269999999999866 -1557.1614200226709
15.299999999999866 -1538.4305190512607
15.329999999999865 -1515.1941171975523
15.359999999999864 -1487.5318576923682
15.389999999999864 -1456.0184186931176
15.419999999999863 -1421.6418814260442
15.449999999999863 -1385.6699239214684
15.479999999999862 -1349.4995384538097
15.509999999999861 -1314.5100591777068
15.53999999999986 -1281.9251878674359
15.56999999999986 -1252.694323141613
15.59999999999986 -1227.405561972529
15.629999999999859 -1206.2538586011776
15.659999999999858 -1189.033148986803
15.689999999999857 -1175.1926097703122
15.719999999999857 -1163.9182310220692
15.749999999999856 -1154.2480620504743
15.779999999999855 -1145.1858399331961
15.809999999999855 -1135.7991632839326
15.839999999999854 -1125.332527897884
15.869999999999854 -1113.300192584422
15.899999999999853 -1099.53219812678
15.929999999999852 -1084.1579265784765
15.959999999999852 -1067.582992448874
15.989999999999851 -1050.424965164789
16.01999999999985 -1033.4152078996992
16.04999999999985 -1017.2944442762041
16.079999999999853 -1002.7267615997496
16.109999999999854 -990.2255414641829
