# Results for "element" with Id # 1995990 for search config "initial" at position: x0: -14.1684210526; y0: 25.3315789474; z0: 167.6667
# time PRESSURE
0.03 1364.5962024852054
0.06 3902.3397936147962
0.09 7329.527336141375
0.12 11296.47266545034
0.15 15420.32186658428
0.18 19319.9763802844
0.21 22649.7839877571
0.24 25129.16866455434
0.27 26565.76674196829
0.30000000000000004 26870.117198118496
0.33000000000000007 26060.614851212908
0.3600000000000001 24258.288005775903
0.3900000000000001 21671.9638582195
0.42000000000000015 18575.40300936057
0.4500000000000002 15278.86458327197
0.4800000000000002 12098.153655786089
0.5100000000000002 9324.397826184992
0.5400000000000003 7197.57882289175
0.5700000000000003 5886.2667345686705
0.6000000000000003 5475.1872153565855
0.6300000000000003 5961.335631099635
0.6600000000000004 7258.469385866444
0.6900000000000004 9209.044966979392
0.7200000000000004 11602.085048530073
0.7500000000000004 14195.059974251875
0.7800000000000005 16737.65019384816
0.8100000000000005 18995.20452774514
0.8400000000000005 20769.8162554484
0.8700000000000006 21917.201539338443
0.9000000000000006 22357.97236840659
0.9300000000000006 22082.43216295201
0.9600000000000006 21148.63737570066
0.9900000000000007 19674.121363156293
1.0200000000000007 17822.274737773358
1.0500000000000007 15784.887691703461
1.0800000000000007 13762.6930918605
1.1100000000000008 11945.889398357485
1.1400000000000008 10496.544720992428
1.1700000000000008 9534.50576388793
1.2000000000000008 9128.003020137148
1.2300000000000009 9289.610407991277
1.260000000000001 9977.661744572095
1.290000000000001 11102.69969799414
1.320000000000001 12538.09502212984
1.350000000000001 14133.645992781436
1.380000000000001 15730.769173702656
1.410000000000001 17177.8201331031
1.440000000000001 18344.132168786127
1.470000000000001 19131.52341306686
1.500000000000001 19482.283462696185
1.5300000000000011 19383.00003078331
1.5600000000000012 18863.989410224676
1.5900000000000012 17994.524297555632
1.6200000000000012 16874.46984450914
1.6500000000000012 15623.275370444451
1.6800000000000013 14367.517605136025
1.7100000000000013 13228.293590287381
1.7400000000000013 12309.724830291158
1.7700000000000014 11689.661506720287
1.8000000000000014 11413.398734740906
1.8300000000000014 11490.867056711986
1.8600000000000014 11897.392316721978
1.8900000000000015 12577.761283501633
1.9200000000000015 13453.027259031576
1.9500000000000015 14429.263953520636
1.9800000000000015 15407.332775740868
2.0100000000000016 16292.685385999011
2.0400000000000014 17004.267336716035
2.070000000000001 17481.71552596246
2.100000000000001 17690.234758122348
2.130000000000001 17622.784721538414
2.1600000000000006 17299.475684223966
2.1900000000000004 16764.348807232393
2.22 16079.96360517035
2.25 15320.415044962503
2.28 14563.53750578346
2.3099999999999996 13883.101512691921
2.3399999999999994 13341.776439866837
2.369999999999999 12985.52020723963
2.399999999999999 12839.884372899
2.429999999999999 12908.506085022243
2.4599999999999986 13173.830495503938
2.4899999999999984 13599.881406710654
2.5199999999999982 14136.707307185667
2.549999999999998 14725.985154907412
2.579999999999998 15307.174246117065
2.6099999999999977 15823.58933951781
2.6399999999999975 16227.798747482633
2.6699999999999973 16485.846386126483
2.699999999999997 16579.935346907914
2.729999999999997 16509.378216688965
2.7599999999999967 16289.801443703389
2.7899999999999965 15950.766418986528
2.8199999999999963 15532.122326156292
2.849999999999996 15079.51746102428
2.879999999999996 14639.562184966606
2.9099999999999957 14255.145947717852
2.9399999999999955 13961.369832293549
2.9699999999999953 13782.469522101183
2.999999999999995 13729.983446001042
3.029999999999995 13802.283175938652
3.0599999999999947 13985.438893967661
3.0899999999999945 14255.263346209593
3.1199999999999943 14580.266879082239
3.149999999999994 14925.182528249014
3.179999999999994 15254.679652862584
3.2099999999999937 15536.88690177753
3.2399999999999936 15746.383249488565
3.2699999999999934 15866.38615381701
3.299999999999993 15889.959903422903
3.329999999999993 15820.173392329687
3.3599999999999928 15669.247551835164
3.3899999999999926 15456.83003172847
3.4199999999999924 15207.618499961813
3.449999999999992 14948.605991160479
3.479999999999992 14706.247178081343
3.509999999999992 14503.835744092114
3.5399999999999916 14359.345508523933
3.5699999999999914 14283.927244732535
3.599999999999991 14281.17649840219
3.629999999999991 14347.202152546364
3.659999999999991 14471.44371162628
3.6899999999999906 14638.113146322927
3.7199999999999904 14828.0800512536
3.7499999999999902 15020.985944024325
3.77999999999999 15197.361375543398
3.80999999999999 15340.532381392279
3.8399999999999896 15438.136099339214
3.8699999999999894 15483.114680437928
3.8999999999999893 15474.11659806412
3.929999999999989 15415.299095950986
3.959999999999989 15315.585601757415
3.9899999999999887 15187.484890710457
4.019999999999989 15045.61724822584
4.049999999999989 14905.113706576132
4.079999999999989 14780.058442270816
4.10999999999999 14682.129741480523
4.13999999999999 14619.565650951206
4.16999999999999 14596.539875680268
4.19999999999999 14612.986601737994
4.229999999999991 14664.864678292826
4.259999999999991 14744.808594630773
4.289999999999991 14843.076171457342
4.319999999999991 14948.679155273403
4.349999999999992 15050.57086435118
4.379999999999992 15138.766557377441
4.409999999999992 15205.287307931478
4.439999999999992 15244.842202765787
4.469999999999993 15255.195786301723
4.499999999999993 15237.202932249857
4.529999999999993 15194.528327215354
4.559999999999993 15133.098464591678
4.589999999999994 15060.358724288837
4.619999999999994 14984.423387184092
4.649999999999994 14913.211886635834
4.679999999999994 14853.659507370263
4.709999999999995 14811.078463480351
4.739999999999995 14788.724633485737
4.769999999999995 14787.600797626408
4.799999999999995 14806.500992882655
4.829999999999996 14842.27648059168
4.859999999999996 14890.281229604901
4.889999999999996 14944.940280106212
4.919999999999996 15000.374964333601
4.949999999999997 15051.01776728376
4.979999999999997 15092.155314542008
5.009999999999997 15120.34875403003
5.039999999999997 15133.69672960688
5.069999999999998 15131.925002002794
5.099999999999998 15116.305606796854
5.129999999999998 15089.424470139595
5.159999999999998 15054.83155659301
5.189999999999999 15016.616760303741
5.219999999999999 14978.960229989636
5.249999999999999 14945.703837641937
5.279999999999999 14919.986387213652
5.31 14903.974820566633
5.34 14898.712602501304
5.37 14904.091588319661
5.4 14918.942206047439
5.430000000000001 14941.224534904493
5.460000000000001 14968.294847331294
5.490000000000001 14997.213910675342
5.520000000000001 15025.063450731868
5.550000000000002 15049.238221203206
5.580000000000002 15067.68567578357
5.610000000000002 15079.074133155653
5.640000000000002 15082.876292374707
5.670000000000003 15079.364927694369
5.700000000000003 15069.528222604888
5.730000000000003 15054.919518950821
5.760000000000003 15037.461682878038
5.790000000000004 15019.228348624325
5.820000000000004 15002.225638323058
5.850000000000004 14988.197821184893
5.880000000000004 14978.471577503871
5.910000000000005 14973.852993783617
5.940000000000005 14974.58465245497
5.970000000000005 14980.362254887725
6.000000000000005 14990.404217869509
6.030000000000006 15003.564192887694
6.060000000000006 15018.471331054654
6.090000000000006 15033.682645345929
6.120000000000006 15047.831317909273
6.150000000000007 15059.75639806543
6.180000000000007 15068.602144219189
6.210000000000007 15073.88034286011
6.240000000000007 15075.491409214934
6.270000000000008 15073.706201040392
6.300000000000008 15069.113082466258
6.330000000000008 15062.536632843516
6.360000000000008 15054.93971231969
6.390000000000009 15047.319025231556
6.420000000000009 15040.605544259068
6.450000000000009 15035.578853892943
6.480000000000009 15032.801768159574
6.51000000000001 15032.580819916879
6.54000000000001 15034.954778340178
6.57000000000001 15039.709694547531
6.60000000000001 15046.417624186151
6.6300000000000106 15054.493731621049
6.660000000000011 15063.263332090311
6.690000000000011 15072.032805447296
6.720000000000011 15080.158021545045
6.7500000000000115 15087.10283757203
6.780000000000012 15092.48301346054
6.810000000000012 15096.092954425321
6.840000000000012 15097.912867299236
6.8700000000000125 15098.098040756628
6.900000000000013 15096.952623743924
6.930000000000013 15094.890733890355
6.960000000000013 15092.389960055945
6.9900000000000135 15089.941944831218
7.020000000000014 15088.004540222792
7.050000000000014 15086.960104851936
7.080000000000014 15087.083549431842
7.1100000000000145 15088.52271955604
7.140000000000015 15091.292183071124
7.170000000000015 15095.279632390182
7.200000000000015 15100.263776527896
7.2300000000000155 15105.941400224881
7.260000000000016 15111.960735481669
7.290000000000016 15117.95756308742
7.320000000000016 15123.590587902465
7.3500000000000165 15128.57248415814
7.380000000000017 15132.694181354867
7.410000000000017 15135.840655052223
7.440000000000017 15137.997041962622
7.4700000000000175 15139.24497143317
7.500000000000018 15139.750113967286
7.530000000000018 15139.742114072076
7.560000000000018 15139.48923355122
7.5900000000000185 15139.270411709695
7.620000000000019 15139.34772222137
7.650000000000019 15139.941901808674
7.680000000000019 15141.212946574688
7.7100000000000195 15143.247221443642
7.74000000000002 15146.051847290932
7.77000000000002 15149.557382639076
7.80000000000002 15153.627614140567
7.8300000000000205 15158.075758825744
7.860000000000021 15162.685055999624
7.890000000000021 15167.23129332589
7.920000000000021 15171.505019107768
7.9500000000000215 15175.3318625809
7.980000000000022 15178.5884686516
8.010000000000021 15181.21320961837
8.04000000000002 15183.21007373689
8.07000000000002 15184.645616061138
8.10000000000002 15185.640124903925
8.130000000000019 15186.353440242234
8.160000000000018 15186.967092374662
8.190000000000017 15187.665201506967
8.220000000000017 15188.615721016413
8.250000000000016 15189.953977529436
8.280000000000015 15191.769944819163
8.310000000000015 15194.100754078583
8.340000000000014 15196.928872657169
8.370000000000013 15200.185685556015
8.400000000000013 15203.7605897
8.430000000000012 15207.514029742968
8.460000000000012 15211.293090057869
8.49000000000001 15214.94779213932
8.52000000000001 15218.346467613712
8.55000000000001 15221.389177770037
8.580000000000009 15224.016761386445
8.610000000000008 15226.216435244802
8.640000000000008 15228.021760945554
8.670000000000007 15229.5064399373
8.700000000000006 15230.7745620053
8.730000000000006 15231.948328608793
8.760000000000005 15233.15458017254
8.790000000000004 15234.511563903608
8.820000000000004 15236.11634663968
8.850000000000003 15238.035011038799
8.880000000000003 15240.296685704438
8.910000000000002 15242.891828082524
8.940000000000001 15245.774767331412
8.97 15248.870564983
9.0 15252.084295834458
9.03 15255.311318935652
9.059999999999999 15258.448475723988
9.089999999999998 15261.405191450713
9.119999999999997 15264.113855606094
9.149999999999997 15266.5366905109
9.179999999999996 15268.668479773667
9.209999999999996 15270.535325824283
9.239999999999995 15272.19005352584
9.269999999999994 15273.706302646548
9.299999999999994 15275.170191422267
9.329999999999993 15276.670369999127
9.359999999999992 15278.288704777066
9.389999999999992 15280.091308051822
9.419999999999991 15282.121825479939
9.44999999999999 15284.39779181789
9.47999999999999 15286.910284184716
9.50999999999999 15289.626120285862
9.539999999999988 15292.493105407864
9.569999999999988 15295.447336583771
9.599999999999987 15298.420824116834
9.629999999999987 15301.34972595514
9.659999999999986 15304.1808616876
9.689999999999985 15306.876870089458
9.719999999999985 15309.42006708642
9.749999999999984 15311.814070337128
9.779999999999983 15314.08299664308
9.809999999999983 15316.26733865108
9.839999999999982 15318.418300666715
9.869999999999981 15320.591771217212
9.89999999999998 15322.842332265553
9.92999999999998 15325.21723734441
9.95999999999998 15327.750685365372
9.989999999999979 15330.460279381201
10.019999999999978 14116.245210734727
10.049999999999978 11308.872404770715
10.079999999999977 7358.15287202702
10.109999999999976 2820.067662659236
10.139999999999976 -1716.4772405593956
10.169999999999975 -5703.484407245429
10.199999999999974 -8697.484987355983
10.229999999999974 -10405.573021930468
10.259999999999973 -10709.698627582933
10.289999999999973 -9668.124200492297
10.319999999999972 -7495.789691800785
10.349999999999971 -4527.565855153614
10.37999999999997 -1170.0345926096866
10.40999999999997 2151.729460974864
10.43999999999997 5045.847067326511
10.469999999999969 7197.894531516045
10.499999999999968 8403.063562285704
10.529999999999967 8583.209132541204
10.559999999999967 7787.6447073123
10.589999999999966 6178.598588320744
10.619999999999965 4003.9842543991854
10.649999999999965 1561.6269160098586
10.679999999999964 -840.0779876112917
10.709999999999964 -2919.958068467082
10.739999999999963 -4455.741096160122
10.769999999999962 -5306.1863982846135
10.799999999999962 -5421.738697977564
10.829999999999961 -4843.347776069621
10.85999999999996 -3690.6281296816614
10.88999999999996 -2141.63609178635
10.919999999999959 -407.3802162789218
10.949999999999958 1295.5165858446398
10.979999999999958 2770.6562542210568
11.009999999999957 3863.314408718673
11.039999999999957 4475.32787756506
11.069999999999956 4572.192593181894
11.099999999999955 4182.127364203672
11.129999999999955 3387.855361468065
11.159999999999954 2312.618397900602
11.189999999999953 1102.5568489472755
11.219999999999953 -92.17453425105344
11.249999999999952 -1135.2184820669763
11.279999999999951 -1918.7462847868533
11.30999999999995 -2373.635762172746
11.33999999999995 -2474.295574327304
11.36999999999995 -2238.027618881915
11.399999999999949 -1719.4815689765117
11.429999999999948 -1001.2536158571896
11.459999999999948 -182.05836413914062
11.489999999999947 635.9567753742153
11.519999999999946 1359.2175274572048
11.549999999999946 1912.72320258719
11.579999999999945 2247.0613492442835
11.609999999999944 2341.8867235117164
11.639999999999944 2205.7697146774844
11.669999999999943 1872.7514127408435
11.699999999999942 1396.2840439097463
11.729999999999942 841.4859494300374
11.759999999999941 276.7478264009402
11.78999999999994 -234.29627333789293
11.81999999999994 -639.5468761734746
11.84999999999994 -903.3076978083685
11.879999999999939 -1008.861560188614
11.909999999999938 -958.6711309885115
11.939999999999937 -772.3967263482034
11.969999999999937 -483.15480599978844
11.999999999999936 -132.60224295964653
12.029999999999935 234.4864893145833
12.059999999999935 575.4924434216016
12.089999999999934 854.4965952872379
12.119999999999933 1045.6518237233977
12.149999999999933 1135.116493842354
12.179999999999932 1121.4757772753724
12.209999999999932 1014.7473141296881
12.239999999999931 834.2203922127657
12.26999999999993 605.4806374100262
12.29999999999993 357.03029035997685
12.329999999999929 116.91194885039731
12.359999999999928 -90.29165793375655
12.389999999999928 -245.79218719621952
12.419999999999927 -338.0757625116205
12.449999999999926 -363.4526428538778
12.479999999999926 -325.7085832456569
12.509999999999925 -234.98465253061025
12.539999999999925 -106.08487764832266
12.569999999999924 43.54655892550551
12.599999999999923 195.9251888445171
12.629999999999923 334.4720854842352
12.659999999999922 445.61232560899765
12.689999999999921 519.8961643397324
12.71999999999992 552.5762353667043
12.74999999999992 543.6376246049788
12.77999999999992 497.3419450663063
12.809999999999919 421.3798535369655
12.839999999999918 325.7573459384081
12.869999999999918 221.56148640776476
12.899999999999917 119.7418161135494
12.929999999999916 30.027714804787728
12.959999999999916 -39.924421584626366
12.989999999999915 -85.09205603753361
13.019999999999914 -103.33642603478933
13.049999999999914 -95.34381574204427
13.079999999999913 -64.30065600115279
13.109999999999912 -15.358646818249198
13.139999999999912 45.034484107210346
13.169999999999911 109.85464276236974
13.19999999999991 172.21179097511364
13.22999999999991 225.98756975940455
13.25999999999991 266.34912414001803
13.289999999999909 290.10144011582804
13.319999999999908 295.8611008416892
13.349999999999907 284.0549268363053
13.379999999999907 256.7510383148962
13.409999999999906 217.35225425321536
13.439999999999905 170.18907937039882
13.469999999999905 120.05441990519354
13.499999999999904 71.7338080266421
13.529999999999903 29.566029318150427
13.559999999999903 -2.9274333821928735
13.589999999999902 -23.32696679328152
13.619999999999902 -30.49047495023766
13.6499999999999 -24.604724854936656
13.6799999999999 -7.105239775217058
13.7099999999999 19.513720843358854
13.739999999999899 51.97709690977242
13.769999999999898 86.57551408674198
13.799999999999898 119.53980701903824
13.829999999999897 147.40533099980226
13.859999999999896 167.34278160343194
13.889999999999896 177.413872688531
13.919999999999895 176.73445474125853
13.949999999999894 165.52815820477795
13.979999999999894 145.07249186516364
14.009999999999893 117.53463725162652
14.039999999999893 85.7204818001613
14.069999999999892 52.78257225006925
14.099999999999891 21.886554669573535
14.12999999999989 -4.121773272003864
14.15999999999989 -22.997084950687075
14.18999999999989 -33.30756905027611
14.219999999999889 -34.556246922086316
14.249999999999888 -27.198764727127177
14.279999999999887 -12.567007274407018
14.309999999999887 7.290889870989602
14.339999999999886 29.84494474680318
14.369999999999886 52.373348754442155
14.399999999999885 72.26450646045991
14.429999999999884 87.29513922468065
14.459999999999884 95.8623471311823
14.489999999999883 97.13688830791139
14.519999999999882 91.1267549723868
14.549999999999882 78.65118683790257
14.579999999999881 61.2291241686587
14.60999999999988 40.89349437495217
14.63999999999988 19.95199388578743
14.66999999999988 0.7253400030966759
14.699999999999878 -14.708799653018872
14.729999999999878 -24.734537027335165
14.759999999999877 -28.36045692312468
14.789999999999877 -25.307785142820904
14.819999999999876 -16.01455615661156
14.849999999999875 -1.5632620458104753
14.879999999999875 16.45957796197075
14.909999999999874 36.154917588265015
14.939999999999873 55.53267618702372
14.969999999999873 72.73657145381283
14.999999999999872 86.24264243257258
15.029999999999871 95.01313586293995
15.05999999999987 98.5900250702301
15.08999999999987 97.12158304840509
15.11999999999987 91.31943085522633
15.149999999999869 82.35702911968146
15.179999999999868 71.72178144200325
15.209999999999868 61.03482525895875
15.239999999999867 51.86200480644277
15.269999999999866 45.53785519969318
15.299999999999866 43.02240834886966
15.329999999999865 44.80655682030103
15.359999999999864 50.87458321263022
15.389999999999864 60.72391922259911
15.419999999999863 73.44363301505386
15.449999999999863 87.84007958768899
15.479999999999862 102.58537270766064
15.509999999999861 116.36951738561052
15.53999999999986 128.04220681046888
15.56999999999986 136.73182677946488
15.59999999999986 141.9279478123394
15.629999999999859 143.51776487368477
15.659999999999858 141.78402090465156
15.689999999999857 137.3517842825891
15.719999999999857 131.10296564662016
15.749999999999856 124.06433591877595
15.779999999999855 117.28751875236001
15.809999999999855 111.7368455910312
15.839999999999854 108.18227385343893
15.869999999999854 107.11622031273343
15.899999999999853 108.70877577519454
15.929999999999852 112.81193436144176
15.959999999999852 118.98875632873666
15.989999999999851 126.57754129123373
16.01999999999985 134.78444972997553
16.04999999999985 142.78610340511165
16.079999999999853 149.82447474404626
16.109999999999854 155.288062610654
16.139999999999855 158.77015703064504
16.169999999999856 160.1050345315682
16.199999999999857 159.37289242806116
16.22999999999986 156.87931037688753
