# Results for "element" with Id # 12053 for search config "initial" at position: x0: -31.3; y0: 0; z0: 105.263073684
# time PRESSURE
0.03 1376.9189235682593
0.06 3937.5649690353707
0.09 7395.698046632988
0.12 11398.519336719604
0.15 15559.738036106699
0.18 19494.762514022324
0.21 22854.67211787511
0.24 25356.13450968629
0.27 26804.815816100392
0.30000000000000004 27110.29663573071
0.33000000000000007 26291.15867853979
0.3600000000000001 24469.768139611875
0.3900000000000001 21857.30335919941
0.42000000000000015 18730.614503643843
0.4500000000000002 15403.413836735645
0.4800000000000002 12194.903017051227
0.5100000000000002 9399.1480010665
0.5400000000000003 7258.286054589279
0.5700000000000003 5942.052253220657
0.6000000000000003 5535.2750813328785
0.6300000000000003 6034.044664044272
0.6600000000000004 7350.364926839452
0.6900000000000004 9324.320399377864
0.7200000000000004 11742.217896379649
0.7500000000000004 14358.760813168465
0.7800000000000005 16921.10382025861
0.8100000000000005 19192.582669901785
0.8400000000000005 20974.015958568256
0.8700000000000006 22120.734578325922
0.9000000000000006 22553.89891245415
0.9300000000000006 22265.215851778503
0.9600000000000006 21314.79616696786
0.9900000000000007 19822.579551651783
1.0200000000000007 17954.367357726067
1.0500000000000007 15904.029627174703
1.0800000000000007 13873.781793630558
1.1100000000000008 12054.548518894097
1.1400000000000008 10608.33120600364
1.1700000000000008 9654.194132255181
1.2000000000000008 9259.038672051134
1.2300000000000009 9433.787590659975
1.260000000000001 10135.050682795989
1.290000000000001 11271.810044818389
1.320000000000001 12716.2366179196
1.350000000000001 14317.4230953371
1.380000000000001 15916.628130368501
1.410000000000001 17362.565787269
1.440000000000001 18525.336237376294
1.470000000000001 19307.7703774048
1.500000000000001 19653.228591978084
1.5300000000000011 19549.251933656335
1.5600000000000012 19026.857647314908
1.5900000000000012 18155.695815750896
1.6200000000000012 17035.682051540123
1.6500000000000012 15786.04509139826
1.6800000000000013 14532.965071218008
1.7100000000000013 13397.075996619995
1.7400000000000013 12482.06935905621
1.7700000000000014 11865.469133182902
1.8000000000000014 11592.382871403504
1.8300000000000014 11672.689337478543
1.8600000000000014 12081.768005338328
1.8900000000000015 12764.517034337317
1.9200000000000015 13642.108488499314
1.9500000000000015 14620.700512923137
1.9800000000000015 15601.179428334688
2.0100000000000016 16488.956219815806
2.0400000000000014 17202.882238392565
2.070000000000001 17682.472595840627
2.100000000000001 17892.814241295433
2.130000000000001 17826.784288994593
2.1600000000000006 17504.46871573146
2.1900000000000004 16969.9543127016
2.22 16285.914357551384
2.25 15526.610908166478
2.28 14770.07559458597
2.3099999999999996 14090.277930025502
2.3399999999999994 13550.060175510565
2.369999999999999 13195.502916987694
2.399999999999999 13052.213858725589
2.429999999999999 13123.811706440953
2.4599999999999986 13392.650406522474
2.4899999999999984 13822.600063099551
2.5199999999999982 14363.510554617267
2.549999999999998 14956.838878284138
2.579999999999998 15541.82891607115
2.6099999999999977 16061.61097716695
2.6399999999999975 16468.622903880176
2.6699999999999973 16728.849053166196
2.699999999999997 16824.51236289493
2.729999999999997 16755.022712265403
2.7599999999999967 16536.16883747074
2.7899999999999965 16197.718159283604
2.8199999999999963 15779.74227869258
2.849999999999996 15328.098357886034
2.879999999999996 14889.564939169337
2.9099999999999957 14507.137845267065
2.9399999999999955 14215.951276474076
2.9699999999999953 14040.200097202567
2.999999999999995 13991.317458838723
3.029999999999995 14067.523069701178
3.0599999999999947 14254.711524059223
3.0899999999999945 14528.520145451079
3.1199999999999943 14857.305600688442
3.149999999999994 15205.685904331702
3.179999999999994 15538.263966779221
3.2099999999999937 15823.153739468737
3.2399999999999936 16034.967759358808
3.2699999999999934 16156.996720038556
3.299999999999993 16182.405986902697
3.329999999999993 16114.379836469183
3.3599999999999928 15965.255432717826
3.3899999999999926 15754.7855443765
3.4199999999999924 15507.752220060276
3.449999999999992 15251.205125948196
3.479999999999992 15011.62409183327
3.509999999999992 14812.296134729771
3.5399999999999916 14671.159094051409
3.5699999999999914 14599.303753497155
3.599999999999991 14600.249238786459
3.629999999999991 14670.020362736312
3.659999999999991 14797.974191685715
3.6899999999999906 14968.250591124744
3.7199999999999904 15161.664534544134
3.7499999999999902 15357.825510294719
3.77999999999999 15537.256873779057
3.80999999999999 15683.301574507685
3.8399999999999896 15783.634595585716
3.8699999999999894 15831.251561300141
3.8999999999999893 15824.863096802555
3.929999999999989 15768.689919718996
3.959999999999989 15671.713212813396
3.9899999999999887 15546.487785890558
4.019999999999989 15407.663992810092
4.049999999999989 15270.384553771439
4.079999999999989 15148.726892012171
4.10999999999999 15054.346003873357
4.13999999999999 14995.443638195498
4.16999999999999 14976.14888539718
4.19999999999999 14996.34838142213
4.229999999999991 15051.955883790668
4.259999999999991 15135.568049083124
4.289999999999991 15237.415902387507
4.319999999999991 15346.497423131106
4.349999999999992 15451.76591861968
4.379999999999992 15543.249573431984
4.409999999999992 15612.993000178909
4.439999999999992 15655.736126173311
4.469999999999993 15669.277764118673
4.499999999999993 15654.506422167053
4.529999999999993 15615.116095062429
4.559999999999993 15557.055279257569
4.589999999999994 15487.782136529006
4.619999999999994 15415.413657968584
4.649999999999994 15347.862212380027
4.679999999999994 15292.047562166374
4.709999999999995 15253.260233354244
4.739999999999995 15234.731007137536
4.769999999999995 15237.437166516907
4.799999999999995 15260.149718010809
4.829999999999996 15299.70167725464
4.859999999999996 15351.435203940615
4.889999999999996 15409.770760474645
4.919999999999996 15468.832300146214
4.949999999999997 15523.061418948779
4.979999999999997 15567.758924006634
5.009999999999997 15599.503149504928
5.039999999999997 15616.410629209988
5.069999999999998 15618.223708539455
5.099999999999998 15606.227930879086
5.129999999999998 15583.018089429317
5.159999999999998 15552.147832461444
5.189999999999999 15517.705680492789
5.219999999999999 15483.865710377113
5.249999999999999 15454.459962725326
5.279999999999999 15432.615015446403
5.31 15420.484903365112
5.34 15419.100486864636
5.37 15428.342709511593
5.4 15447.034078618344
5.430000000000001 15473.130447494
5.460000000000001 15503.987495905978
5.490000000000001 15536.668847387564
5.520000000000001 15568.261917644437
5.550000000000002 15596.16927310525
5.580000000000002 15618.347776437076
5.610000000000002 15633.474728321542
5.640000000000002 15641.02968053735
5.670000000000003 15641.289877996358
5.700000000000003 15635.245921319089
5.730000000000003 15624.451933900727
5.760000000000003 15610.829573889212
5.790000000000004 15596.449233034655
5.820000000000004 15583.312458795186
5.850000000000004 15573.156965518452
5.880000000000004 15567.302047167208
5.910000000000005 15566.54721662121
5.940000000000005 15571.130078132877
5.970000000000005 15580.743174016456
6.000000000000005 15594.603743758473
6.030000000000006 15611.566153644384
6.060000000000006 15630.262101724575
6.090000000000006 15649.25246355536
6.120000000000006 15667.174638077995
6.150000000000007 15682.87164057699
6.180000000000007 15695.491428233885
6.210000000000007 15704.548832818953
6.240000000000007 15709.946495352477
6.270000000000008 15711.956194641834
6.300000000000008 15711.165441047531
6.330000000000008 15708.39711903849
6.360000000000008 15704.611808687023
6.390000000000009 15700.803694588092
6.420000000000009 15697.90095884046
6.450000000000009 15696.680193828874
6.480000000000009 15697.701355736595
6.51000000000001 15701.268702857333
6.54000000000001 15707.419998576088
6.57000000000001 15715.941991201811
6.60000000000001 15726.408190760332
6.6300000000000106 15738.23524859087
6.660000000000011 15750.750416134475
6.690000000000011 15763.262460050117
6.720000000000011 15775.129387496587
6.7500000000000115 15785.816877549236
6.780000000000012 15794.942011760782
6.810000000000012 15802.300136417125
6.840000000000012 15807.87189859808
6.8700000000000125 15811.812572571574
6.900000000000013 15814.42568293474
6.930000000000013 15816.123905066253
6.960000000000013 15817.383008780016
6.9900000000000135 15818.692853174432
7.020000000000014 15820.50979449439
7.050000000000014 15823.215600040756
7.080000000000014 15827.085305783114
7.1100000000000145 15832.267354532487
7.140000000000015 15838.777380267175
7.170000000000015 15846.504261594837
7.200000000000015 15855.228121585726
7.2300000000000155 15864.647579392788
7.260000000000016 15874.412702847381
7.290000000000016 15884.160834800254
7.320000000000016 15893.551728028537
7.3500000000000165 15902.298786806772
7.380000000000017 15910.19351765529
7.410000000000017 15917.12112120122
7.440000000000017 15923.066634432607
7.4700000000000175 15928.111193600958
7.500000000000018 15932.41959909476
7.530000000000018 15936.220474327038
7.560000000000018 15939.781159226488
7.5900000000000185 15943.38012512102
7.620000000000019 15947.279490024408
7.650000000000019 15951.700289065744
7.680000000000019 15956.80294015846
7.7100000000000195 15962.674216538888
7.74000000000002 15969.321781109931
7.77000000000002 15976.676757548626
7.80000000000002 15984.603514837318
7.8300000000000205 15992.915649130337
7.860000000000021 16001.396443229445
7.890000000000021 16009.82149769604
7.920000000000021 16017.981082320584
7.9500000000000215 16025.70056346558
7.980000000000022 16032.85636300782
8.010000000000021 16039.386374285712
8.04000000000002 16045.294022878696
8.07000000000002 16050.645336568754
8.10000000000002 16055.560009627487
8.130000000000019 16060.197266802175
8.160000000000018 16064.73826921826
8.190000000000017 16069.366966035364
8.220000000000017 16074.251185521698
8.250000000000016 16079.526152133776
8.280000000000015 16085.281998867236
8.310000000000015 16091.556135819541
8.340000000000014 16098.331336367186
8.370000000000013 16105.539377063213
8.400000000000013 16113.070009840292
8.430000000000012 16120.783889411443
8.460000000000012 16128.528293137206
8.49000000000001 16136.153502012792
8.52000000000001 16143.528501536446
8.55000000000001 16150.554164130235
8.580000000000009 16157.172590399761
8.610000000000008 16163.371761262779
8.640000000000008 16169.185136362908
8.670000000000007 16174.68656087645
8.700000000000006 16179.981084061346
8.730000000000006 16185.192616860177
8.760000000000005 16190.449939248392
8.790000000000004 16195.873288721656
8.820000000000004 16201.56165339455
8.850000000000003 16207.583020096898
8.880000000000003 16213.96837638307
8.910000000000002 16220.709953957008
8.940000000000001 16227.763726330406
8.97 16235.055733094823
9.0 16242.491164016938
9.03 16249.96557712959
9.059999999999999 16257.376574698435
9.089999999999998 16264.634841019933
9.119999999999997 16271.673453980693
9.149999999999997 16278.454459073815
9.179999999999996 16284.971962136491
9.209999999999996 16291.251419152237
9.239999999999995 16297.345531098574
9.269999999999994 16303.327520136309
9.299999999999994 16309.282619309968
9.329999999999993 16315.298103676478
9.359999999999992 16321.453795896106
9.389999999999992 16327.813719401162
9.419999999999991 16334.419715104994
9.44999999999999 16341.287765864987
9.47999999999999 16348.407453519867
9.50999999999999 16355.744055921607
9.539999999999988 16363.24363645125
9.569999999999988 16370.839716881197
9.599999999999987 16378.461783273433
9.629999999999987 16386.043211835604
9.659999999999986 16393.52803825374
9.689999999999985 16400.87645845418
9.719999999999985 16408.068571451946
9.749999999999984 16415.105938406392
9.779999999999983 16422.01105790347
9.809999999999983 16428.823286262214
9.839999999999982 16435.59326419487
9.869999999999981 16442.376583475743
9.89999999999998 16449.227298612102
9.92999999999998 16456.192239302953
9.95999999999998 16463.306130989662
9.989999999999979 16470.58827158038
10.019999999999978 15242.59542249249
10.049999999999978 12400.395783952798
10.079999999999977 8404.37266038555
10.109999999999976 3820.600806794369
10.139999999999976 -754.3446475041947
10.169999999999975 -4768.0953519468685
10.199999999999974 -7776.035089888593
10.229999999999974 -9486.61327229812
10.259999999999973 -9784.62378517706
10.289999999999973 -8731.662850639985
10.319999999999972 -6545.73689024276
10.349999999999971 -3564.1150574241883
10.37999999999997 -195.03233410040278
10.40999999999997 3135.394291751027
10.43999999999997 6034.654137343075
10.469999999999969 8187.959803384934
10.499999999999968 9390.374031786996
10.529999999999967 9563.912916999825
10.559999999999967 8758.425083965345
10.589999999999966 7137.080444604782
10.619999999999965 4949.082826644728
10.649999999999965 2493.7381388407566
10.679999999999964 80.8876420832344
10.709999999999964 -2007.121069701448
10.739999999999963 -3547.3030577577106
10.769999999999962 -4398.274528304413
10.799999999999962 -4510.909932373838
10.829999999999961 -3927.0644493330333
10.85999999999996 -2767.5608847372623
10.88999999999996 -1211.7578171739838
10.919999999999959 528.1495307222305
10.949999999999958 2234.6430112133894
10.979999999999958 3710.833144789637
11.009999999999957 4801.943224247545
11.039999999999957 5410.160714217835
11.069999999999956 5501.6428293830395
11.099999999999955 5105.450033159972
11.129999999999955 4305.188109693314
11.159999999999954 3224.896297071735
11.189999999999953 2011.327676636943
11.219999999999953 815.0002713381087
11.249999999999952 -227.63636832925945
11.279999999999951 -1008.9166081722881
11.30999999999995 -1460.0865082050755
11.33999999999995 -1556.057992044875
11.36999999999995 -1314.688827148002
11.399999999999949 -791.1582919430098
11.429999999999948 -68.49894574927974
11.459999999999948 754.2783453432797
11.489999999999947 1574.8941753595088
11.519999999999946 2299.806185280555
11.549999999999946 2854.1880764773605
11.579999999999945 3188.9073293310835
11.609999999999944 3283.9587456786635
11.639999999999944 3148.2633099765435
11.669999999999943 2816.1784417859712
11.699999999999942 2341.4009613987428
11.729999999999942 1789.1970351757923
11.759999999999941 1227.9970158597412
11.78999999999994 721.3690442761393
11.81999999999994 321.2577713469663
11.84999999999994 63.14208976766061
11.879999999999939 -36.50912784139562
11.909999999999938 19.595088776730822
11.939999999999937 211.57966064116468
11.969999999999937 506.1686409569402
11.999999999999936 861.613263545476
12.029999999999935 1233.1188126313614
12.059999999999935 1578.113127325101
12.089999999999934 1860.7763637563385
12.119999999999933 2055.3940839075754
12.149999999999933 2148.2697976887093
12.179999999999932 2138.124761113619
12.209999999999932 2035.0861867802475
12.239999999999931 1858.5131374011023
12.26999999999993 1634.0152563565848
12.29999999999993 1390.07271434588
12.329999999999929 1154.6653017328615
12.359999999999928 952.2813538076505
12.389999999999928 801.5957779965809
12.419999999999927 714.0049978667048
12.449999999999926 693.0922688791795
12.479999999999926 734.9892162179285
12.509999999999925 829.5049260899679
12.539999999999925 961.820645448264
12.569999999999924 1114.5109486911542
12.599999999999923 1269.638335171868
12.629999999999923 1410.6911051730176
12.659999999999922 1524.172724100158
12.689999999999921 1600.712964205853
12.71999999999992 1635.635803512291
12.74999999999992 1628.9824765873352
12.77999999999992 1585.047624185349
12.809999999999919 1511.5286298247793
12.839999999999918 1418.4143000887027
12.869999999999918 1316.7557965623344
12.899999999999917 1217.4555156166407
12.929999999999916 1130.1918566178376
12.959999999999916 1062.5739540450895
12.989999999999915 1019.5842924981562
13.019999999999914 1003.333598995905
13.049999999999914 1013.1203473929713
13.079999999999913 1045.7552410709036
13.109999999999912 1096.093003212642
13.139999999999912 1157.6985840129428
13.169999999999911 1223.5716076466647
13.19999999999991 1286.8565920129358
13.22999999999991 1341.475796294895
13.25999999999991 1382.635501582883
13.289999999999909 1407.1718941318873
13.319999999999908 1413.7208678704103
13.349999999999907 1402.7126383236991
13.379999999999907 1376.204503941636
13.409999999999906 1337.580047068016
13.439999999999905 1291.1504635972772
13.469999999999905 1241.697818004174
13.499999999999904 1194.004380341482
13.529999999999903 1152.410562892854
13.559999999999903 1120.4374697519006
13.589999999999902 1100.5021898159905
13.619999999999902 1093.7484112277523
13.6499999999999 1099.9990257380384
13.6799999999999 1117.8336725371573
13.7099999999999 1144.777491608959
13.739999999999899 1177.5793381011013
13.769999999999898 1212.5538964177674
13.799999999999898 1245.952489377167
13.829999999999897 1274.3281908652111
13.859999999999896 1294.8631979889942
13.889999999999896 1305.624447168562
13.919999999999895 1305.7267582892212
13.949999999999894 1295.3886528411465
13.979999999999894 1275.8775590404966
14.009999999999893 1249.3497032115652
14.039999999999893 1218.6056023023511
14.069999999999892 1186.7891871897748
14.099999999999891 1157.0561098281203
14.12999999999989 1132.2479271335499
14.15999999999989 1114.6082189452118
14.18999999999989 1105.5650444871142
14.219999999999889 1105.605788024756
14.249999999999888 1114.2574925535237
14.279999999999887 1130.1646347113442
14.309999999999887 1151.2551891689252
14.339999999999886 1174.9792640397025
14.369999999999886 1198.59408858184
14.399999999999885 1219.4631706807784
14.429999999999884 1235.3360928537388
14.459999999999884 1244.5797869758344
14.489999999999883 1246.3352365685978
14.519999999999882 1240.585258563498
14.549999999999882 1228.1291579036863
14.579999999999881 1210.4708306707646
14.60999999999988 1189.6330753638847
14.63999999999988 1167.9198089053195
14.66999999999988 1147.653581695339
14.699999999999878 1130.919636430982
14.729999999999878 1119.3447010696632
14.759999999999877 1113.9337687559052
14.789999999999877 1114.9805952215877
14.819999999999876 1122.0606526501722
14.849999999999875 1134.1036307617835
14.879999999999875 1149.534326382051
14.909999999999874 1166.4648403754582
14.939999999999873 1182.9156176812667
14.969999999999873 1197.0396004048634
14.999999999999872 1207.3209745113056
15.029999999999871 1212.7296577601587
15.05999999999987 1212.8170797344296
15.08999999999987 1207.7423874643941
15.11999999999987 1198.231000626605
15.149999999999869 1185.4710970713043
15.179999999999868 1170.9625621454259
15.209999999999868 1156.3366334515827
15.239999999999867 1143.1681078371037
15.269999999999866 1132.8002420005341
15.299999999999866 1126.2032203161857
15.329999999999865 1123.8806089022607
15.359999999999864 1125.833082941882
15.389999999999864 1131.580912887345
15.419999999999863 1140.238420739486
15.449999999999863 1150.632698843268
15.479999999999862 1161.448480941178
15.509999999999861 1171.3816421939619
15.53999999999986 1179.284675907954
15.56999999999986 1184.2890493024595
15.59999999999986 1185.8891710820437
15.629999999999859 1183.9816165333195
15.659999999999858 1178.858463881427
15.689999999999857 1171.1557165886993
15.719999999999857 1161.7653597371464
15.749999999999856 1151.7216650912242
15.779999999999855 1142.0787809616347
15.809999999999855 1133.7924728683865
15.839999999999854 1127.6175622037088
15.869999999999854 1124.0319809246885
15.899999999999853 1123.1950125510095
15.929999999999852 1124.9468934683493
15.959999999999852 1128.8425936723506
15.989999999999851 1134.2151654589454
16.01999999999985 1140.2630846058828
16.04999999999985 1146.1487967556693
16.079999999999853 1151.0953127673658
16.109999999999854 1154.471321823945
16.139999999999855 1155.8548238503602
16.169999999999856 1155.0709984785317
16.199999999999857 1152.1985175937104
16.22999999999986 1147.5468512619354
