# Results for "element" with Id # 62946 for search config "initial" at position: x0: -31.3; y0: 0; z0: 236.841915789
# time PRESSURE
0.03 1372.452346887541
0.06 3924.8022851769642
0.09 7371.698636443364
0.12 11361.42355420132
0.15 15508.92075993211
0.18 19430.944160936542
0.21 22779.94963057506
0.24 25273.87447742923
0.27 26719.360409934714
0.30000000000000004 27026.47170015546
0.33000000000000007 26213.633475194387
0.3600000000000001 24402.371864155724
0.3900000000000001 21802.432174220077
0.42000000000000015 18688.857306220845
0.4500000000000002 15373.476557746699
0.4800000000000002 12173.843314015088
0.5100000000000002 9382.864556732602
0.5400000000000003 7242.160058369484
0.5700000000000003 5921.62494872194
0.6000000000000003 5506.85481993082
0.6300000000000003 5995.171487141438
0.6600000000000004 7300.088186400979
0.6900000000000004 9263.278718946078
0.7200000000000004 11672.521074183245
0.7500000000000004 14283.689705403347
0.7800000000000005 16844.65623940274
0.8100000000000005 19118.912424205813
0.8400000000000005 20906.8350689147
0.8700000000000006 22062.765299813153
0.9000000000000006 22506.469547109482
0.9300000000000006 22228.0722338659
0.9600000000000006 21286.16885211137
0.9900000000000007 19799.489727575663
1.0200000000000007 17933.115374491088
1.0500000000000007 15880.77398132388
1.0800000000000007 13845.107156504657
1.1100000000000008 12017.9332006124
1.1400000000000008 10562.451102889367
1.1700000000000008 9599.035231582526
1.2000000000000008 9195.818726274381
1.2300000000000009 9364.71752383213
1.260000000000001 10062.978503367342
1.290000000000001 11199.805232233071
1.320000000000001 12647.1713429133
1.350000000000001 14253.605233603847
1.380000000000001 15859.53200454045
1.410000000000001 17312.691524467697
1.440000000000001 18482.20997980099
1.470000000000001 19270.075679299338
1.500000000000001 19619.043480078573
1.5300000000000011 19516.348456878735
1.5600000000000012 18993.01821142822
1.5900000000000012 18118.99939119109
1.6200000000000012 16994.722241168107
1.6500000000000012 15740.05794835978
1.6800000000000013 14481.859019426984
1.7100000000000013 13341.37114715272
1.7400000000000013 12422.76564958503
1.7700000000000014 11803.870783847222
1.8000000000000014 11529.906154196156
1.8300000000000014 11610.681399958901
1.8600000000000014 12021.355736052068
1.8900000000000015 12706.500603198101
1.9200000000000015 13586.90703047925
1.9500000000000015 14568.349135961284
1.9800000000000015 15551.372276948696
2.0100000000000016 16441.125745805904
2.0400000000000014 17156.30107678411
2.070000000000001 17636.361837947177
2.100000000000001 17846.444025273235
2.130000000000001 17779.55255340179
2.1600000000000006 17455.95099060668
2.1900000000000004 16919.921004352025
2.22 16234.317540962902
2.25 15473.549397068224
2.28 14715.747201031354
2.3099999999999996 14034.930318512592
2.3399999999999994 13493.94877387233
2.369999999999999 13138.862425515816
2.399999999999999 12995.244481501197
2.429999999999999 13066.679339287783
2.4599999999999986 13335.495494714232
2.4899999999999984 13765.54948429199
2.5199999999999982 14306.68740611963
2.549999999999998 14900.364609492877
2.579999999999998 15485.816731150813
2.6099999999999977 16006.15062140519
2.6399999999999975 16413.760383764304
2.6699999999999973 16674.566201030608
2.699999999999997 16770.711476719414
2.729999999999997 16701.521632383425
2.7599999999999967 16482.709504567792
2.7899999999999965 16143.98940038362
2.8199999999999963 15725.41395775526
2.849999999999996 15272.863146603191
2.879999999999996 14833.180468685154
2.9099999999999957 14449.462673058526
2.9399999999999955 14156.968090092634
2.9699999999999953 13980.0218105914
2.999999999999995 13930.174868109118
3.029999999999995 14005.735168204828
3.0599999999999947 14192.643157180186
3.0899999999999945 14466.533147598117
3.1199999999999943 14795.71136587
3.149999999999994 15144.705561538683
3.179999999999994 15478.002236125034
3.2099999999999937 15763.589282649282
3.2399999999999936 15975.960782590946
3.2699999999999934 16098.311780978229
3.299999999999993 16123.74571920229
3.329999999999993 16055.424598851161
3.3599999999999928 15905.702840183363
3.3899999999999926 15694.385062903932
3.4199999999999924 15446.330378240893
3.449999999999992 15188.679652081246
3.479999999999992 14948.006109312451
3.509999999999992 14747.681176365391
3.5399999999999916 14605.709369102753
3.5699999999999914 14533.224532480432
3.599999999999991 14533.762270346282
3.629999999999991 14603.337773326784
3.659999999999991 14731.275548047965
3.6899999999999906 14901.66523633416
3.7199999999999904 15095.26087346319
3.7499999999999902 15291.607359313935
3.77999999999999 15471.166893583135
3.80999999999999 15617.23099619807
3.8399999999999896 15717.437574586307
3.8699999999999894 15764.762391012455
3.8999999999999893 15757.914537608207
3.929999999999989 15701.130419896868
3.959999999999989 15603.421503492851
3.9899999999999887 15477.383425426458
4.019999999999989 15337.712856510492
4.049999999999989 15199.599315330628
4.079999999999989 15077.1624894673
4.10999999999999 14982.090838490256
4.13999999999999 14922.607637499661
4.16999999999999 14902.849832605756
4.19999999999999 14922.698037153768
4.229999999999991 14978.047476196094
4.259999999999991 15061.46638872592
4.289999999999991 15163.150956136904
4.319999999999991 15272.062253324802
4.349999999999992 15377.118631125515
4.379999999999992 15468.319060916438
4.409999999999992 15537.687682244285
4.439999999999992 15579.954588455123
4.469999999999993 15592.919969555525
4.499999999999993 15577.484177306422
4.529999999999993 15537.361644020628
4.559999999999993 15478.527094078467
4.589999999999994 15408.46743689928
4.619999999999994 15335.327540989638
4.649999999999994 15267.043514242721
4.679999999999994 15210.552329787844
4.709999999999995 15171.153510832082
4.739999999999995 15152.078030056195
4.769999999999995 15154.294980587574
4.799999999999995 15176.56023131907
4.829999999999996 15215.68686427761
4.859999999999996 15266.994839974603
4.889999999999996 15324.882891425546
4.919999999999996 15383.456291393564
4.949999999999997 15437.142972006937
4.979999999999997 15481.236211077558
5.009999999999997 15512.313513690926
5.039999999999997 15528.497177003566
5.069999999999998 15529.540832968816
5.099999999999998 15516.745023062871
5.129999999999998 15492.721323313688
5.159999999999998 15461.039781730522
5.189999999999999 15425.80300053389
5.219999999999999 15391.195265661261
5.249999999999999 15361.054149481206
5.279999999999999 15338.506605717053
5.31 15325.702033478656
5.34 15323.662613359282
5.37 15332.25790041642
5.4 15350.297932081563
5.430000000000001 15375.726682861297
5.460000000000001 15405.889724587187
5.490000000000001 15437.843425219075
5.520000000000001 15468.671562129926
5.550000000000002 15495.77685587361
5.580000000000002 15517.119683348668
5.610000000000002 15531.383650910975
5.640000000000002 15538.056523625859
5.670000000000003 15537.424572265232
5.700000000000003 15530.486958864165
5.730000000000003 15518.804743545537
5.760000000000003 15504.304363656223
5.790000000000004 15489.058620378211
5.820000000000004 15475.06887422984
5.850000000000004 15464.07024724492
5.880000000000004 15457.377585736866
5.910000000000005 15455.784659117695
5.940000000000005 15459.522689041825
5.970000000000005 15468.278166625194
6.000000000000005 15481.263464739539
6.030000000000006 15497.329594067867
6.060000000000006 15515.10653597072
6.090000000000006 15533.155160838334
6.120000000000006 15550.114693756483
6.150000000000007 15564.83153731323
6.180000000000007 15576.458027144841
6.210000000000007 15584.513666850075
6.240000000000007 15588.905638860413
6.270000000000008 15589.909585363132
6.300000000000008 15588.115716951579
6.330000000000008 15584.348067453502
6.360000000000008 15579.566811084029
6.390000000000009 15574.764442869324
6.420000000000009 15570.866479159826
6.450000000000009 15568.646106983144
6.480000000000009 15568.65986464117
6.51000000000001 15571.209032835763
6.54000000000001 15576.328927562292
6.57000000000001 15583.804363941254
6.60000000000001 15593.208233740756
6.6300000000000106 15603.957757177124
6.660000000000011 15615.38159772904
6.690000000000011 15626.790722948354
6.720000000000011 15637.54587995115
6.7500000000000115 15647.115544743761
6.780000000000012 15655.119395041213
6.810000000000012 15661.354381189294
6.840000000000012 15665.802059073289
6.8700000000000125 15668.617974964167
6.900000000000013 15670.105413084766
6.930000000000013 15670.676758661673
6.960000000000013 15670.807185013917
6.9900000000000135 15670.985489622122
7.020000000000014 15671.66664123533
7.050000000000014 15673.230765811843
7.080000000000014 15675.951640190384
7.1100000000000145 15679.977207392994
7.140000000000015 15685.323212132447
7.170000000000015 15691.879491296924
7.200000000000015 15699.427695378381
7.2300000000000155 15707.668118250409
7.260000000000016 15716.252732152512
7.290000000000016 15724.82080624262
7.320000000000016 15733.0338785619
7.3500000000000165 15740.606698455515
7.380000000000017 15747.33155689435
7.410000000000017 15753.09400886998
7.440000000000017 15757.879081931504
7.4700000000000175 15761.767836977091
7.500000000000018 15764.924930978605
7.530000000000018 15767.578695617143
7.560000000000018 15769.99619121568
7.5900000000000185 15772.455674850793
7.620000000000019 15775.219246835439
7.650000000000019 15778.508214729003
7.680000000000019 15782.483390260113
7.7100000000000195 15787.232108872968
7.74000000000002 15792.7627646087
7.77000000000002 15799.007461420691
7.80000000000002 15805.831638107999
7.8300000000000205 15813.049949247437
7.860000000000021 15820.446516593096
7.890000000000021 15827.797546028236
7.920000000000021 15834.89375635274
7.9500000000000215 15841.560717715183
7.980000000000022 15847.674762092203
8.010000000000021 15853.173545228161
8.04000000000002 15858.059881269804
8.07000000000002 15862.398996301405
8.10000000000002 15866.309711009771
8.130000000000019 15869.95049481541
8.160000000000018 15873.501967285809
8.190000000000017 15877.147722294809
8.220000000000017 15881.055413576554
8.250000000000016 15885.360163988651
8.280000000000015 15890.151840164637
8.310000000000015 15895.467520063034
8.340000000000014 15901.289543775583
8.370000000000013 15907.549285279765
8.400000000000013 15914.136109128258
8.430000000000012 15920.910283080271
8.460000000000012 15927.718608552368
8.49000000000001 15934.410769751765
8.52000000000001 15940.85505426426
8.55000000000001 15946.951495387682
8.580000000000009 15952.641191492043
8.610000000000008 15957.911119487397
8.640000000000008 15962.793828560172
8.670000000000007 15967.362208259132
8.700000000000006 15971.72025583126
8.730000000000006 15975.990880644536
8.760000000000005 15980.302181011504
8.790000000000004 15984.773660743604
8.820000000000004 15989.503763166442
8.850000000000003 15994.560142493288
8.880000000000003 15999.973591602075
8.910000000000002 16005.736156927664
8.940000000000001 16011.803455181931
8.97 16018.100906692325
9.0 16024.53312392419
9.03 16030.99496787303
9.059999999999999 16037.3833358363
9.089999999999998 16043.608286937142
9.119999999999997 16049.602306339282
9.149999999999997 16055.326959965501
9.179999999999996 16060.775949088506
9.209999999999996 16065.974429915112
9.239999999999995 16070.974987636726
9.269999999999994 16075.850736295775
9.299999999999994 16080.686740565536
9.329999999999993 16085.570152011242
9.359999999999992 16090.580665291147
9.389999999999992 16095.782116907136
9.419999999999991 16101.216143075651
9.44999999999999 16106.898556859362
9.47999999999999 16112.818741413941
9.50999999999999 16118.94191663418
9.539999999999988 16125.213972576936
9.569999999999988 16131.568377445865
9.599999999999987 16137.934234448381
9.629999999999987 16144.244426472993
9.659999999999986 16150.442697974186
9.689999999999985 16156.48919394078
9.719999999999985 16162.364260273505
9.749999999999984 16168.069715077887
9.779999999999983 16173.627847364403
9.809999999999983 16179.077682915515
9.839999999999982 16184.469922032558
9.869999999999981 16189.860744568627
9.89999999999998 16195.305296573071
9.92999999999998 16200.851493910537
9.95999999999998 16206.535101095757
9.989999999999979 16212.376399886209
10.019999999999978 14992.735834717418
10.049999999999978 12168.654633088896
10.079999999999977 8192.768463121178
10.109999999999976 3624.5061070108345
10.139999999999976 -943.3998264647695
10.169999999999975 -4959.158991541482
10.199999999999974 -7976.091362463784
10.229999999999974 -9699.171644758699
10.259999999999973 -10009.603859537825
10.289999999999973 -8966.253802542475
10.319999999999972 -6785.713795741208
10.349999999999971 -3805.1283116094573
10.37999999999997 -433.55172756374117
10.40999999999997 2901.602328063715
10.43999999999997 5806.468120546847
10.469999999999969 7965.123978492236
10.499999999999968 9171.840218642326
10.529999999999967 9348.175855028245
10.559999999999967 8543.794030985522
10.589999999999966 6921.868000007455
10.619999999999965 4731.735633588789
10.649999999999965 2272.9450629707894
10.679999999999964 -144.31341093534496
10.709999999999964 -2237.2363359109113
10.739999999999963 -3782.297386673356
10.769999999999962 -4637.5363493763425
10.799999999999962 -4753.291744549456
10.829999999999961 -4171.016703188513
10.85999999999996 -3011.341445451205
10.88999999999996 -1453.687651433558
10.919999999999959 289.4334723292044
10.949999999999958 1999.983768035156
10.979999999999958 3480.437414986478
11.009999999999957 4575.370979324357
11.039999999999957 5186.420073644598
11.069999999999956 5279.365393540875
11.099999999999955 4883.116014342709
11.129999999999955 4081.3582266175827
11.159999999999954 2998.4177442507844
11.189999999999953 1781.4839794001389
11.219999999999953 581.5910079685257
11.249999999999952 -464.2944596460589
11.279999999999951 -1248.059324833744
11.30999999999995 -1700.6307352093038
11.33999999999995 -1796.7655308350893
11.36999999999995 -1554.3429977770238
11.399999999999949 -1028.7258745402146
11.429999999999948 -303.25762556246684
11.459999999999948 522.6642920246575
11.489999999999947 1346.3555207936051
11.519999999999946 2073.907400089911
11.549999999999946 2630.213784594963
11.579999999999945 2965.9814950394243
11.609999999999944 3061.1776108488134
11.639999999999944 2924.822685020916
11.669999999999943 2591.4777285938976
11.699999999999942 2115.110802338612
11.729999999999942 1561.2849363696237
11.759999999999941 998.7102266835213
11.78999999999994 491.18071363050996
11.81999999999994 90.78507261489816
11.84999999999994 -166.94947359972377
11.879999999999939 -265.601145473317
11.909999999999938 -208.0071276080135
11.939999999999937 -14.22797222619376
11.969999999999937 282.24784585720954
11.999999999999936 639.4630422891246
12.029999999999935 1012.4467561387945
12.059999999999935 1358.5033472283596
12.089999999999934 1641.754452487363
12.119999999999933 1836.4942418599837
12.149999999999933 1929.0958581507205
12.179999999999932 1918.396406870202
12.209999999999932 1814.6664451828394
12.239999999999931 1637.4129805337354
12.26999999999993 1412.3785256271358
12.29999999999993 1168.1439339277817
12.329999999999929 932.7479490849029
12.359999999999928 730.6927674290431
12.389999999999928 580.6249882160595
12.419999999999927 493.87739389502474
12.449999999999926 473.9459761970669
12.479999999999926 516.8654515521264
12.509999999999925 612.3529040419869
12.539999999999925 745.5142443855034
12.569999999999924 898.8740873626721
12.599999999999923 1054.4750105884789
12.629999999999923 1195.8152553201996
12.659999999999922 1309.4342568110012
12.689999999999921 1386.0174539831496
12.71999999999992 1420.9554235245632
12.74999999999992 1414.3574901239867
12.77999999999992 1370.5789861554215
12.809999999999919 1297.363450305711
12.839999999999918 1204.7271238462392
12.869999999999918 1103.7281656171192
12.899999999999917 1005.2561549726308
12.929999999999916 918.9605605785215
12.959999999999916 852.4107273857171
12.989999999999915 810.5449709445539
13.019999999999914 795.4320945149195
13.049999999999914 806.335797399256
13.079999999999913 840.0431548080473
13.109999999999912 891.3984186345941
13.139999999999912 953.9696352461759
13.169999999999911 1020.7715010565058
13.19999999999991 1084.9723795805664
13.22999999999991 1140.5233065205039
13.25999999999991 1182.6596225449998
13.289999999999909 1208.2425554514914
13.319999999999908 1215.9261874096007
13.349999999999907 1206.1496571961302
13.379999999999907 1180.9699145633526
13.409999999999906 1143.7610430231387
13.439999999999905 1098.8167180100538
13.469999999999905 1050.896164680956
13.499999999999904 1004.7574074332002
13.529999999999903 964.717816991946
13.559999999999903 934.2794441190572
13.589999999999902 915.8467996212747
13.619999999999902 910.5570323696923
13.6499999999999 918.2333586770307
13.6799999999999 937.4610391939
13.7099999999999 965.7743012530003
13.739999999999899 999.933892932011
13.769999999999898 1036.2663920092753
13.799999999999898 1071.0336987328926
13.829999999999897 1100.7959046359367
13.859999999999896 1122.7364893879299
13.889999999999896 1134.9183135691792
13.919999999999895 1136.4471683898416
13.949999999999894 1127.528947461831
13.979999999999894 1109.4158958260055
14.009999999999893 1084.249887733151
14.039999999999893 1054.8191307700192
14.069999999999892 1024.2561244168833
14.099999999999891 995.7072995317835
14.12999999999989 972.0087951449533
14.15999999999989 955.4021114292455
14.18999999999989 947.3192275398274
14.219999999999889 948.2558213295705
14.249999999999888 957.745191472006
14.279999999999887 974.4351605182336
14.309999999999887 996.2558617121061
14.339999999999886 1020.6590535063633
14.369999999999886 1044.9040345600888
14.399999999999885 1066.3566480903717
14.429999999999884 1082.7679226907692
14.459999999999884 1092.5041416588108
14.489999999999883 1094.704318024502
14.519999999999882 1089.349260265317
14.549999999999882 1077.237658379047
14.579999999999881 1059.8747900796204
14.60999999999988 1039.2855798218689
14.63999999999988 1017.7755989675192
14.66999999999988 997.6698785504952
14.699999999999878 981.0580492095953
14.729999999999878 969.5732055150684
14.759999999999877 964.2279127019193
14.789999999999877 965.324718268237
14.819999999999876 972.4475418880747
14.849999999999875 984.5332330684362
14.879999999999875 1000.0123049629963
14.909999999999874 1017.0016561899844
14.939999999999873 1033.5254608956097
14.969999999999873 1047.737919903702
14.999999999999872 1058.123245185829
15.029999999999871 1063.6514334358437
15.05999999999987 1063.8745929187553
15.08999999999987 1058.9539458216184
15.11999999999987 1049.6172299023804
15.149999999999869 1037.0546094490915
15.179999999999868 1022.7674653176147
15.209999999999868 1008.3873778347756
15.239999999999867 995.4873291175405
15.269999999999866 985.4088761956983
15.299999999999866 979.1222802026763
15.329999999999865 977.1331335598308
15.359999999999864 979.4450321676122
15.389999999999864 985.5804652577632
15.419999999999863 994.6550053588654
15.449999999999863 1005.4950885029062
15.479999999999862 1016.782986232818
15.509999999999861 1027.2116703992058
15.53999999999986 1035.630863570208
15.56999999999986 1041.169566276651
15.59999999999986 1043.3198175909097
15.629999999999859 1041.9771094322414
15.659999999999858 1037.4327276964545
15.689999999999857 1030.321981039511
15.719999999999857 1021.5364109021117
15.749999999999856 1012.1120998293172
15.779999999999855 1003.1058980387184
15.809999999999855 995.4758984431389
15.839999999999854 989.977982653092
15.869999999999854 987.0902939159029
15.899999999999853 986.9726768718218
15.929999999999852 989.4646460762515
15.959999999999852 994.1186248596669
15.989999999999851 1000.2648436078351
16.01999999999985 1007.0984644882739
16.04999999999985 1013.7779411296318
16.079999999999853 1019.5226276378029
16.109999999999854 1023.696954564429
16.139999999999855 1025.8741421306283
16.169999999999856 1025.873016257764
16.199999999999857 1023.7658263285305
16.22999999999986 1019.8563259364045
16.25999999999986 1014.6342918151737
