# Results for "element" with Id # 47567 for search config "initial" at position: x0: -31.3; y0: 0; z0: 197.368263158
# time PRESSURE
0.03 1375.3789579101795
0.06 3933.187561409422
0.09 7387.50575837588
0.12 11385.911432648787
0.15 15542.539993706272
0.18 19473.26876064805
0.21 22829.66529224859
0.24 25328.853554823545
0.27 26776.848024524916
0.30000000000000004 27083.3857070762
0.33000000000000007 26266.949585364866
0.3600000000000001 24449.534565676055
0.3900000000000001 21841.716700788125
0.42000000000000015 18719.610953966047
0.4500000000000002 15396.192253419047
0.4800000000000002 12190.054879087747
0.5100000000000002 9394.890163887776
0.5400000000000003 7252.747179835447
0.5700000000000003 5933.560521628729
0.6000000000000003 5522.6003831304215
0.6300000000000003 6016.567384819832
0.6600000000000004 7328.15548823381
0.6900000000000004 9298.129897684104
0.7200000000000004 11713.382653873998
0.7500000000000004 14329.031458300455
0.7800000000000005 16892.414098424477
0.8100000000000005 19166.78184301798
0.8400000000000005 20952.598982416337
0.8700000000000006 22104.61045465072
0.9000000000000006 22543.240143283412
0.9300000000000006 22259.41822690558
0.9600000000000006 21312.56171628719
0.9900000000000007 19822.10798134436
1.0200000000000007 17953.62292001741
1.0500000000000007 15901.036481501278
1.0800000000000007 13866.898537242641
1.1100000000000008 12042.68102289091
1.1400000000000008 10591.057080726794
1.1700000000000008 9631.789676868033
1.2000000000000008 9232.411720106153
1.2300000000000009 9404.334041522876
1.260000000000001 10104.45698273351
1.290000000000001 11241.830836537152
1.320000000000001 12688.475600383832
1.350000000000001 14293.14373493033
1.380000000000001 15896.616509988893
1.410000000000001 17347.060067149025
1.440000000000001 18514.028194642775
1.470000000000001 19299.87390340244
1.500000000000001 19647.60334378709
1.5300000000000011 19544.561532793185
1.5600000000000012 19021.741286564415
1.5900000000000012 18148.929711105786
1.6200000000000012 17026.311944845016
1.6500000000000012 15773.476260212576
1.6800000000000013 14517.003056248299
1.7100000000000013 13377.917632047407
1.7400000000000013 12460.250048014384
1.7700000000000014 11841.777331740608
1.8000000000000014 11567.753553074383
1.8300000000000014 11648.090743872537
1.8600000000000014 12058.09329186645
1.8900000000000015 12742.49217338496
1.9200000000000015 13622.225059652055
1.9500000000000015 14603.178804107307
1.9800000000000015 15585.964238178587
2.0100000000000016 16475.744491943362
2.0400000000000014 17191.17762156816
2.070000000000001 17671.6582499365
2.100000000000001 17882.2342361
2.130000000000001 17815.821825613115
2.1600000000000006 17492.61190357343
2.1900000000000004 16956.841872033965
2.22 16271.357347784508
2.25 15510.591355177636
2.28 14752.72478812683
2.3099999999999996 14071.840915776733
2.3399999999999994 13530.852998169568
2.369999999999999 13175.869853116175
2.399999999999999 13032.489620273825
2.429999999999999 13104.292708759522
2.4599999999999986 13373.576168175523
2.4899999999999984 13804.144362728266
2.5199999999999982 14345.780580714005
2.549999999999998 14939.879102160801
2.579999999999998 15525.627611807318
2.6099999999999977 16046.106878489862
2.6399999999999975 16453.711277764054
2.6699999999999973 16714.387244437014
2.699999999999997 16810.32561758397
2.729999999999997 16740.912016149057
2.7599999999999967 16521.921953278546
2.7899999999999965 16183.12450939895
2.8199999999999963 15764.611023428328
2.849999999999996 15312.278469395338
2.879999999999996 14872.964073268031
2.9099999999999957 14489.737135400013
2.9399999999999955 14197.812674679792
2.9699999999999953 14021.464005425354
2.999999999999995 13972.189932158242
3.029999999999995 14048.253309369904
3.0599999999999947 14235.562463105101
3.0899999999999945 14509.73610235641
3.1199999999999943 14839.081803967963
3.149999999999994 15188.144015939131
3.179999999999994 15521.437545259483
3.2099999999999937 15806.985368297255
3.2399999999999936 16019.318225424653
3.2699999999999934 16141.664603671754
3.299999999999993 16167.154510135115
3.329999999999993 16098.967127544258
3.3599999999999928 15949.463856109536
3.3899999999999926 15738.44632465543
3.4199999999999924 15490.76235391359
3.449999999999992 15233.535270690729
3.479999999999992 14993.317051696753
3.509999999999992 14793.456822531243
3.5399999999999916 14651.938097714732
3.5699999999999914 14579.876945962806
3.599999999999991 14580.796018895533
3.629999999999991 14650.703264155032
3.659999999999991 14778.921899449158
3.6899999999999906 14949.54601843289
3.7199999999999904 15143.33887755173
3.7499999999999902 15339.858219307644
3.77999999999999 15519.581178485969
3.80999999999999 15665.81460688895
3.8399999999999896 15766.210574244693
3.8699999999999894 15813.75648604701
3.8999999999999893 15807.169392281598
3.929999999999989 15750.689394777883
3.959999999999989 15653.327197135688
3.9899999999999887 15527.673508578771
4.019999999999989 15388.416729868972
4.049999999999989 15250.735739595615
4.079999999999989 15128.738487158163
4.10999999999999 15034.101924483017
4.13999999999999 14975.039306463468
4.16999999999999 14955.680095277956
4.19999999999999 14975.900685943214
4.229999999999991 15031.595590302715
4.259999999999991 15115.335820888868
4.289999999999991 15217.3233271151
4.319999999999991 15326.527081915707
4.349999999999992 15431.874531462625
4.379999999999992 15523.373829230311
4.409999999999992 15593.057341142776
4.439999999999992 15635.661550900597
4.469999999999993 15648.990571425387
4.499999999999993 15633.945898992912
4.529999999999993 15594.240393564914
4.559999999999993 15535.844806875717
4.589999999999994 15466.240269083659
4.619999999999994 15393.564826861782
4.649999999999994 15325.747638294339
4.679999999999994 15269.71936202137
4.709999999999995 15230.774570766076
4.739999999999995 15212.141156998328
4.769999999999995 15214.78727055495
4.799999999999995 15237.469890581182
4.829999999999996 15277.005026660003
4.859999999999996 15328.716971368638
4.889999999999996 15387.009591709031
4.919999999999996 15445.993436984569
4.949999999999997 15500.101187433249
4.979999999999997 15544.629853322574
5.009999999999997 15576.159307493634
5.039999999999997 15592.812578268291
5.069999999999998 15594.342413552422
5.099999999999998 15582.047169734804
5.129999999999998 15558.53524559357
5.159999999999998 15527.373005389889
5.189999999999999 15492.659338990348
5.219999999999999 15458.575249618352
5.249999999999999 15428.955786411458
5.279999999999999 15406.926450371366
5.31 15394.636362600202
5.34 15393.108477131073
5.37 15402.214017571454
5.4 15420.765331987297
5.430000000000001 15446.708977675004
5.460000000000001 15477.393084285479
5.490000000000001 15509.876252309914
5.520000000000001 15541.243896792552
5.550000000000002 15568.899608385615
5.580000000000002 15590.803846984567
5.610000000000002 15605.639586754167
5.640000000000002 15612.893398110022
5.670000000000003 15612.85000967899
5.700000000000003 15606.506882786558
5.730000000000003 15595.42343396082
5.760000000000003 15581.524739835031
5.790000000000004 15566.882605701756
5.820000000000004 15553.497841296077
5.850000000000004 15543.1055054661
5.880000000000004 15537.020844293234
5.910000000000005 15536.038405142313
5.940000000000005 15540.390452745345
5.970000000000005 15549.764610503982
6.000000000000005 15563.374300452597
6.030000000000006 15580.071407279824
6.060000000000006 15598.486517263116
6.090000000000006 15617.18081668518
6.120000000000006 15634.793517568805
6.150000000000007 15650.170708604279
6.180000000000007 15662.464152473209
6.210000000000007 15671.19259555999
6.240000000000007 15676.26237359572
6.270000000000008 15677.948285754332
6.300000000000008 15676.839847144127
6.330000000000008 15673.760613744385
6.360000000000008 15669.670519324587
6.390000000000009 15665.562041309568
6.420000000000009 15662.360906394175
6.450000000000009 15660.840788002504
6.480000000000009 15661.558845240383
6.51000000000001 15664.816971822762
6.54000000000001 15670.651020227298
6.57000000000001 15678.846181776325
6.60000000000001 15688.975489580836
6.6300000000000106 15700.456130673145
6.660000000000011 15712.616564831886
6.690000000000011 15724.767369102494
6.720000000000011 15736.268815129499
6.7500000000000115 15746.588905524102
6.780000000000012 15755.346869348643
6.810000000000012 15762.339322486529
6.840000000000012 15767.547545466197
6.8700000000000125 15771.12687217594
6.900000000000013 15773.380502637863
6.930000000000013 15774.7207834611
6.960000000000013 15775.622914515316
6.9900000000000135 15776.575818497991
7.020000000000014 15778.034633388592
7.050000000000014 15780.379683383471
7.080000000000014 15783.88488477998
7.1100000000000145 15788.698218454152
7.140000000000015 15794.835394072172
7.170000000000015 15802.186092286953
7.200000000000015 15810.53171050594
7.2300000000000155 15819.572215048733
7.260000000000016 15828.959149021948
7.290000000000016 15838.331306151014
7.320000000000016 15847.34977728807
7.3500000000000165 15855.728931995493
7.380000000000017 15863.260788017153
7.410000000000017 15869.83073356937
7.440000000000017 15875.423716330011
7.4700000000000175 15880.120775734928
7.500000000000018 15884.086588362841
7.530000000000018 15887.549524567661
7.560000000000018 15890.776661033027
7.5900000000000185 15894.046231952903
7.620000000000019 15897.620267988845
7.650000000000019 15901.720007147114
7.680000000000019 15906.506197924024
7.7100000000000195 15912.066091444287
7.74000000000002 15918.407973203377
7.77000000000002 15925.46380507871
7.80000000000002 15933.098899818488
7.8300000000000205 15941.127756412188
7.860000000000021 15949.334343036426
7.890000000000021 15957.494757301709
7.920000000000021 15965.399678388221
7.9500000000000215 15972.874655827341
7.980000000000022 15979.796044569039
8.010000000000021 15986.10158053597
8.04000000000002 15991.794183124637
8.07000000000002 15996.939143896494
8.10000000000002 16001.655362253558
8.130000000000019 16006.101420660862
8.160000000000018 16010.458051233198
8.190000000000017 16014.90894330391
8.220000000000017 16019.621808983862
8.250000000000016 16024.731764560516
8.280000000000015 16030.328657653374
8.310000000000015 16036.449543856474
8.340000000000014 16043.076767558656
8.370000000000013 16050.141675089442
8.400000000000013 16057.533585903248
8.430000000000012 16065.112716445665
8.460000000000012 16072.725793312617
8.49000000000001 16080.222411041008
8.52000000000001 16087.470828826203
8.55000000000001 16094.371137861963
8.580000000000009 16100.864480163571
8.610000000000008 16106.93790872816
8.640000000000008 16112.624048216598
8.670000000000007 16117.995842050466
8.700000000000006 16123.157294642655
8.730000000000006 16128.231299070081
8.760000000000005 16133.345884152463
8.790000000000004 16138.62053756497
8.820000000000004 16144.153667124727
8.850000000000003 16150.012885396265
8.880000000000003 16156.228985615211
8.910000000000002 16162.79408830369
8.940000000000001 16169.663942647085
8.97 16176.764210731755
9.0 16183.999796579536
9.03 16191.265900202297
9.059999999999999 16198.459748674772
9.089999999999998 16205.491725541313
9.119999999999997 16212.294688517297
9.149999999999997 16218.8307018917
9.179999999999996 16225.094053098146
9.209999999999996 16231.110465459531
9.239999999999995 16236.932945088247
9.269999999999994 16242.635046963882
9.299999999999994 16248.302307078578
9.329999999999993 16254.02228682045
9.359999999999992 16259.875119458235
9.389999999999992 16265.92515260668
9.419999999999991 16272.214532309737
9.44999999999999 16278.759518358283
9.47999999999999 16285.549863733382
9.50999999999999 16292.551051460297
9.539999999999988 16299.709240007627
9.569999999999988 16306.958203980037
9.599999999999987 16314.227465892982
9.629999999999987 16321.450397963908
9.659999999999986 16328.571178397176
9.689999999999985 16335.550237146294
9.719999999999985 16342.368061257795
9.749999999999984 16349.026558218131
9.779999999999983 16355.54818779389
9.809999999999983 16361.972145918686
9.839999999999982 16368.349076479652
9.869999999999981 16374.73483667888
9.89999999999998 16381.184049069992
9.92999999999998 16387.744138891845
9.95999999999998 16394.450234505246
9.989999999999979 16401.321751266692
10.019999999999978 15176.900662426768
10.049999999999978 12342.232085844209
10.079999999999977 8354.425265151729
10.109999999999976 3776.5825165191463
10.139999999999976 -796.5863412875012
10.169999999999975 -4813.107985353322
10.199999999999974 -7827.401654171879
10.229999999999974 -9546.065169025509
10.259999999999973 -9851.786248402446
10.289999999999973 -8804.393079877707
10.319999999999972 -6620.85757038346
10.349999999999971 -3638.280994547036
10.37999999999997 -265.4926181355412
10.40999999999997 3070.298401218835
10.43999999999997 5975.313332608711
10.469999999999969 8133.613365074892
10.499999999999968 9339.42840563867
10.529999999999967 9514.34948905765
10.559999999999967 8708.196643617785
10.589999999999966 7084.424390194879
10.619999999999965 4892.717673303273
10.649999999999965 2432.947748003596
10.679999999999964 15.517602911673784
10.709999999999964 -2076.724091742455
10.739999999999963 -3620.38478418957
10.769999999999962 -4473.7828356478
10.799999999999962 -4587.615849024389
10.829999999999961 -4003.694648940649
10.85999999999996 -2842.937663031951
10.88999999999996 -1284.935896747247
10.919999999999959 457.7666339703868
10.949999999999958 2167.225528331468
10.979999999999958 3646.1028411811108
11.009999999999957 4739.214260419374
11.039999999999957 5348.440519723624
11.069999999999956 5439.7763448913665
11.099999999999955 5042.284676832478
11.129999999999955 4239.73376916541
11.159999999999954 3156.4557804210035
11.189999999999953 1939.5795896313964
11.219999999999953 740.0263794809969
11.249999999999952 -305.38216739949985
11.279999999999951 -1088.6882327838257
11.30999999999995 -1540.96237139414
11.33999999999995 -1637.0747901460663
11.36999999999995 -1394.9735186173932
11.399999999999949 -870.04017019332
11.429999999999948 -145.58703056784822
11.459999999999948 679.0612092859398
11.489999999999947 1501.3217266789543
11.519999999999946 2227.400052540915
11.549999999999946 2782.300446347398
11.579999999999945 3116.821445366993
11.609999999999944 3210.9924464843134
11.639999999999944 3073.860631617789
11.669999999999943 2739.9781357121656
11.699999999999942 2263.273068066033
11.729999999999942 1709.2463102155273
11.759999999999941 1146.5348187097075
11.78999999999994 638.8592953578525
11.81999999999994 238.24597650143446
11.84999999999994 -19.82147830296121
11.879999999999939 -118.94116526460297
11.909999999999938 -61.94599877570861
11.939999999999937 131.1293972073894
11.969999999999937 426.8384955776304
11.999999999999936 783.2747545097152
12.029999999999935 1155.5187432809
12.059999999999935 1500.9203296552696
12.089999999999934 1783.63500124952
12.119999999999933 1977.9756957174836
12.149999999999933 2070.3179776640163
12.179999999999932 2059.4866066878017
12.209999999999932 1955.7277573931792
12.239999999999931 1778.5168693513808
12.26999999999993 1553.5623103546234
12.29999999999993 1309.413272104202
12.329999999999929 1074.0823408536912
12.359999999999928 872.0535197291345
12.389999999999928 721.9645264553814
12.419999999999927 635.1487901604911
12.449999999999926 615.1111115150936
12.479999999999926 657.9009065205203
12.509999999999925 753.2528525740531
12.539999999999925 886.2906305939525
12.569999999999924 1039.554226496722
12.599999999999923 1195.097093322426
12.629999999999923 1336.423023475944
12.659999999999922 1450.0711911259164
12.689999999999921 1526.7214692682892
12.71999999999992 1561.7545770824681
12.74999999999992 1555.2671550234902
12.77999999999992 1511.6011964992051
12.809999999999919 1438.488098645911
12.839999999999918 1345.9343653811247
12.869999999999918 1244.9914620984575
12.899999999999917 1146.5457084088794
12.929999999999916 1060.2466125137407
12.959999999999916 993.6663774902611
12.989999999999915 951.7483651441087
13.019999999999914 936.5674750530429
13.049999999999914 947.3937520288966
13.079999999999913 981.0201754261219
13.109999999999912 1032.295920854902
13.139999999999912 1094.7923263888958
13.169999999999911 1161.5246923561062
13.19999999999991 1225.6590594406794
13.22999999999991 1281.141651777193
13.25999999999991 1323.2016373956897
13.289999999999909 1348.693877692789
13.319999999999908 1356.2669190862562
13.349999999999907 1346.3565676353603
13.379999999999907 1321.018662080987
13.409999999999906 1283.6281124594727
13.439999999999905 1238.4809791588796
13.469999999999905 1190.3396220093855
13.499999999999904 1143.965404884571
13.529999999999903 1103.6793847543408
13.559999999999903 1072.988015221075
13.589999999999902 1054.3005380409702
13.619999999999902 1048.7585166931112
13.6499999999999 1056.1882002744055
13.6799999999999 1075.1766048289219
13.7099999999999 1103.2584721580936
13.739999999999899 1137.1937012281471
13.769999999999898 1173.3072630760826
13.799999999999898 1207.8591759903522
13.829999999999897 1237.4078002352967
13.859999999999896 1259.1359000286775
13.889999999999896 1271.1062616337267
13.919999999999895 1272.4254076271754
13.949999999999894 1263.3007194255317
13.979999999999894 1244.986626604176
14.009999999999893 1219.6271973431399
14.039999999999893 1190.0121939334301
14.069999999999892 1159.2759320575235
14.099999999999891 1130.5662238864804
14.12999999999989 1106.7198582224414
14.15999999999989 1089.9785392869142
14.18999999999989 1081.773625180951
14.219999999999889 1082.5996437840595
14.249999999999888 1091.9895297764278
14.279999999999887 1108.5915497775325
14.309999999999887 1130.336274409726
14.339999999999886 1154.6753557198122
14.369999999999886 1178.8678717175364
14.399999999999885 1200.2796969147494
14.429999999999884 1216.6620506523248
14.459999999999884 1226.3821662876803
14.489999999999883 1228.580645745816
14.519999999999882 1223.2397048524197
14.549999999999882 1211.1589095729548
14.579999999999881 1193.8440601838236
14.60999999999988 1173.3205708961357
14.63999999999988 1151.8946079637744
14.66999999999988 1131.8912421478276
14.699999999999878 1115.3995664802096
14.729999999999878 1104.0519369934595
14.759999999999877 1098.859912205704
14.789999999999877 1100.1243684352205
14.819999999999876 1107.4274576924925
14.849999999999875 1119.7043831179747
14.879999999999875 1135.3840663505528
14.909999999999874 1152.581883044585
14.939999999999873 1169.3205982626766
14.969999999999873 1183.7535059068482
14.999999999999872 1194.3641529984877
15.029999999999871 1200.1217255453644
15.05999999999987 1200.5773719483477
15.08999999999987 1195.890817593439
15.11999999999987 1186.7881428990586
15.149999999999869 1174.458118421585
15.179999999999868 1160.4014592522863
15.209999999999868 1146.2498025143097
15.239999999999867 1133.5765142357277
15.269999999999866 1123.7232318924955
15.299999999999866 1117.6597279261678
15.329999999999865 1115.8905201310927
15.359999999999864 1118.4176501760628
15.389999999999864 1124.7614658490254
15.419999999999863 1134.0346078703765
15.449999999999863 1145.060901317089
15.479999999999862 1156.520933051256
15.509999999999861 1167.1067988392629
15.53999999999986 1175.6679447517492
15.56999999999986 1181.333671820882
15.59999999999986 1183.5964538961837
15.629999999999859 1182.3512627176167
15.659999999999858 1177.8884980908367
15.689999999999857 1170.8421432173366
15.719999999999857 1162.1022665003738
15.749999999999856 1152.7033328277387
15.779999999999855 1143.7012122724275
15.809999999999855 1136.0542090155457
15.839999999999854 1130.5195925276846
15.869999999999854 1127.577351313369
15.899999999999853 1127.3889985560656
15.929999999999852 1129.796119321041
15.959999999999852 1134.3530412226578
15.989999999999851 1140.3912123053244
16.01999999999985 1147.106844936192
16.04999999999985 1153.6599280125376
16.079999999999853 1159.2717880784737
16.109999999999854 1163.3094386468974
16.139999999999855 1165.3490070115251
16.169999999999856 1165.212485091162
16.199999999999857 1162.9749329860028
16.22999999999986 1158.9417542607418
