# Results for "element" with Id # 33805 for search config "initial" at position: x0: -31.3; y0: 0; z0: 157.894610526
# time PRESSURE
0.03 1376.587254030842
0.06 3936.6318172016818
0.09 7393.967813412302
0.12 11395.879877841819
0.15 15556.173233783902
0.18 19490.368384002708
0.21 22849.669297729746
0.24 25350.865300487563
0.27 26799.7149234019
0.30000000000000004 27105.8315279204
0.33000000000000007 26287.746798631706
0.3600000000000001 24467.688100748153
0.3900000000000001 21856.622403464928
0.42000000000000015 18731.15294252554
0.4500000000000002 15404.757646896733
0.4800000000000002 12196.463311265421
0.5100000000000002 9400.254498744434
0.5400000000000003 7258.294783162673
0.5700000000000003 5940.447449875528
0.6000000000000003 5531.748675968889
0.6300000000000003 6028.544447300103
0.6600000000000004 7343.107693149265
0.6900000000000004 9315.771447079229
0.7200000000000004 11733.039505774652
0.7500000000000004 14349.734308135781
0.7800000000000005 16913.031672178193
0.8100000000000005 19186.180583610378
0.8400000000000005 20969.80897920244
0.8700000000000006 22118.973479430028
0.9000000000000006 22554.513186709875
0.9300000000000006 22267.813610183883
0.9600000000000006 21318.713832272857
0.9900000000000007 19826.97304438126
1.0200000000000007 17958.32983607424
1.0500000000000007 15906.715780949391
1.0800000000000007 13874.519045614501
1.1100000000000008 12052.919563709806
1.1400000000000008 10604.218390870445
1.1700000000000008 9647.783055400912
1.2000000000000008 9250.783448027456
1.2300000000000009 9424.345378153841
1.260000000000001 10125.194861663082
1.290000000000001 11262.334038275962
1.320000000000001 12707.859649560143
1.350000000000001 14310.709120257708
1.380000000000001 15911.927040991837
1.410000000000001 17359.982851207584
1.440000000000001 18524.731964505358
1.470000000000001 19308.788839207537
1.500000000000001 19655.34930528016
1.5300000000000011 19551.85730139896
1.5600000000000012 19029.307915498113
1.5900000000000012 18157.401115687353
1.6200000000000012 17036.164873609116
1.6500000000000012 15784.986365528262
1.6800000000000013 14530.230055304028
1.7100000000000013 13392.718490921563
1.7400000000000013 12476.315321141768
1.7700000000000014 11858.682985603209
1.8000000000000014 11585.020918872238
1.8300000000000014 11665.245996513753
1.8600000000000014 12074.72039057133
1.8900000000000015 12758.274107121764
1.9200000000000015 13636.969604747746
1.9500000000000015 14616.827721779406
1.9800000000000015 15598.586378650813
2.0100000000000016 16487.514681349126
2.0400000000000014 17202.34499738426
2.070000000000001 17682.509240308133
2.100000000000001 17893.05488196765
2.130000000000001 17826.865074161353
2.1600000000000006 17504.073262735572
2.1900000000000004 16968.845741061166
2.22 16283.954735512676
2.25 15523.766988575659
2.28 14766.411328741868
2.3099999999999996 14085.936468385227
2.3399999999999994 13545.238903189338
2.369999999999999 13190.4257193625
2.399999999999999 13047.1044072097
2.429999999999999 13118.870912335864
2.4599999999999986 13388.039929756793
2.4899999999999984 13818.43284963936
2.5199999999999982 14359.84785688039
2.549999999999998 14953.692447692601
2.579999999999998 15539.167001248581
2.6099999999999977 16059.366330665856
2.6399999999999975 16466.701521281455
2.6699999999999973 16727.138765979947
2.699999999999997 16822.890936838594
2.729999999999997 16753.36560264415
2.7599999999999967 16534.35692770675
2.7899999999999965 16195.645515752036
2.8199999999999963 15777.324026097931
2.849999999999996 15325.278311918655
2.879999999999996 14886.321870758164
2.9099999999999957 14503.489365666432
2.9399999999999955 14211.954169558428
2.9699999999999953 14035.946341379904
2.999999999999995 13986.925777057824
3.029999999999995 14063.12661536121
3.0599999999999947 14250.44296475299
3.0899999999999945 14524.496288533406
3.1199999999999943 14853.613517837952
3.149999999999994 15202.372487843993
3.179999999999994 15535.330611009493
3.2099999999999937 15820.556804341644
3.2399999999999936 16032.624747470642
3.2699999999999934 16154.79719883223
3.299999999999993 16180.22566236567
3.329999999999993 16112.09575476772
3.3599999999999928 15962.760367469285
3.3899999999999926 15751.999584881954
3.4199999999999924 15504.63039352282
3.449999999999992 15247.740473433916
3.479999999999992 15007.846066882352
3.509999999999992 14808.26490161801
3.5399999999999916 14666.956758730606
3.5699999999999914 14595.023742465411
3.599999999999991 14595.985200650066
3.629999999999991 14665.855873423609
3.659999999999991 14793.974220508915
3.6899999999999906 14964.455668261566
3.7199999999999904 15158.08794543026
3.7499999999999902 15354.45351460812
3.77999999999999 15534.05180830255
3.80999999999999 15680.207291809831
3.8399999999999896 15780.583504169123
3.8699999999999894 15828.172454044063
3.8999999999999893 15821.688860141587
3.929999999999989 15765.364354271678
3.959999999999989 15668.196315793346
3.9899999999999887 15542.758982409074
4.019999999999989 15403.723110419765
4.049999999999989 15266.250649541898
4.079999999999989 15144.43507691883
4.10999999999999 15049.942730536475
4.13999999999999 14990.981040628601
4.16999999999999 14971.678820058482
4.19999999999999 14991.916809481356
4.229999999999991 15047.598087647082
4.259999999999991 15131.305350615432
4.289999999999991 15233.253919089211
4.319999999999991 15342.426206995586
4.349999999999992 15447.761723384278
4.379999999999992 15539.278034890434
4.409999999999992 15609.013346137019
4.439999999999992 15651.705921069286
4.469999999999993 15665.15759990798
4.499999999999993 15650.264030679718
4.529999999999993 15610.729526165538
4.559999999999993 15552.514707728296
4.589999999999994 15483.09022996403
4.619999999999994 15410.584516202813
4.649999999999994 15342.919078746942
4.679999999999994 15287.01961405544
4.709999999999995 15248.178861235061
4.739999999999995 15229.626029177023
4.769999999999995 15232.333398600418
4.799999999999995 15255.064223769887
4.829999999999996 15294.642114897977
4.859999999999996 15346.399368026177
4.889999999999996 15404.747298741864
4.919999999999996 15463.80248906255
4.949999999999997 15518.001598419492
4.979999999999997 15562.643295729882
5.009999999999997 15594.306754983503
5.039999999999997 15611.112084414477
5.069999999999998 15612.807373499345
5.099999999999998 15600.685303704333
5.129999999999998 15577.348271062609
5.159999999999998 15546.357050805145
5.189999999999999 15511.805962675686
5.219999999999999 15477.872947067384
5.249999999999999 15448.391680744726
5.279999999999999 15426.488117832283
5.31 15414.313584337566
5.34 15412.894556319303
5.37 15422.106593168286
5.4 15440.76659958975
5.430000000000001 15466.825249981968
5.460000000000001 15497.633978939468
5.490000000000001 15530.25354674985
5.520000000000001 15561.770147270245
5.550000000000002 15589.586796992442
5.580000000000002 15611.662261045789
5.610000000000002 15626.676949130562
5.640000000000002 15634.114344770307
5.670000000000003 15634.255926628995
5.700000000000003 15628.096177117679
5.730000000000003 15617.192228630549
5.760000000000003 15603.467761102484
5.790000000000004 15588.994100012726
5.820000000000004 15575.772427579714
5.850000000000004 15565.538976833364
5.880000000000004 15559.6107670021
5.910000000000005 15558.784497101466
5.940000000000005 15563.294737877242
5.970000000000005 15572.831236787824
6.000000000000005 15586.609029308343
6.030000000000006 15603.481011700824
6.060000000000006 15622.078162544893
6.090000000000006 15640.961428701601
6.120000000000006 15658.769172302469
6.150000000000007 15674.346164007226
6.180000000000007 15686.84255481015
6.210000000000007 15695.775409734842
6.240000000000007 15701.049457580088
6.270000000000008 15702.938201097902
6.300000000000008 15702.030359085431
6.330000000000008 15699.149264722668
6.360000000000008 15695.255184539928
6.390000000000009 15691.341303139603
6.420000000000009 15688.334325968137
6.450000000000009 15687.009187448693
6.480000000000009 15687.924365257084
6.51000000000001 15691.382915986858
6.54000000000001 15697.421575806484
6.57000000000001 15705.826108519035
6.60000000000001 15716.169623595928
6.6300000000000106 15727.868961322032
6.660000000000011 15740.251931368435
6.690000000000011 15752.62821524284
6.720000000000011 15764.35708924447
6.7500000000000115 15774.905609054375
6.780000000000012 15783.892171315043
6.810000000000012 15791.112892503057
6.840000000000012 15796.548744807322
6.8700000000000125 15800.354912403674
6.900000000000013 15802.834688902276
6.930000000000013 15804.40058640158
6.960000000000013 15805.528083840247
6.9900000000000135 15806.706487945285
7.020000000000014 15808.391429107234
7.050000000000014 15810.963777205658
7.080000000000014 15814.697839893404
7.1100000000000145 15819.74170187438
7.140000000000015 15826.110930426506
7.170000000000015 15833.694754827215
7.200000000000015 15842.273935982934
7.2300000000000155 15851.547752788247
7.260000000000016 15861.167016336136
7.290000000000016 15870.769830032323
7.320000000000016 15880.016673600281
7.3500000000000165 15888.62142379875
7.380000000000017 15896.375790477896
7.410000000000017 15903.16503126125
7.440000000000017 15908.974141894028
7.4700000000000175 15913.884220427044
7.500000000000018 15918.059986840308
7.530000000000018 15921.729890422495
7.560000000000018 15925.161070661185
7.5900000000000185 15928.631798046612
7.620000000000019 15932.404063117056
7.650000000000019 15936.698982075502
7.680000000000019 15941.67713516605
7.7100000000000195 15947.425549119462
7.74000000000002 15953.952274025745
7.77000000000002 15961.188898724362
7.80000000000002 15969.000342409681
7.8300000000000205 15977.200732165506
7.860000000000021 15985.573789916629
7.890000000000021 15993.895455568188
7.920000000000021 16001.956323670924
7.9500000000000215 16009.581929420297
7.980000000000022 16016.648743132935
8.010000000000021 16023.094653127717
8.04000000000002 16028.922886342662
8.07000000000002 16034.199149904125
8.10000000000002 16039.042768593385
8.130000000000019 16043.612677683977
8.160000000000018 16048.089854429903
8.190000000000017 16052.658157219701
8.220000000000017 16057.485426632777
8.250000000000016 16062.706942191287
8.280000000000015 16068.412765629706
8.310000000000015 16074.640185541684
8.340000000000014 16081.37179520335
8.370000000000013 16088.539199873096
8.400000000000013 16096.031997412589
8.430000000000012 16103.710692321913
8.460000000000012 16111.422337044574
8.49000000000001 16119.016890034454
8.52000000000001 16126.362964547287
8.55000000000001 16133.361029680455
8.580000000000009 16139.95266882353
8.610000000000008 16146.12538082135
8.640000000000008 16151.91220038017
8.670000000000007 16157.386480682759
8.700000000000006 16162.652656730139
8.730000000000006 16167.834012902862
8.760000000000005 16173.058901038909
8.790000000000004 16178.447087462657
8.820000000000004 16184.097177621028
8.850000000000003 16190.076887181971
8.880000000000003 16196.417037224981
8.910000000000002 16203.109750150243
8.940000000000001 16210.110849290071
8.97 16217.346145263238
9.0 16224.720702029426
9.03 16232.129886238867
9.059999999999999 16239.471086268662
9.089999999999998 16246.654806279386
9.119999999999997 16253.614028905407
9.149999999999997 16260.310874211522
9.179999999999996 16266.739632647199
9.209999999999996 16272.925989898336
9.239999999999995 16278.922875206314
9.269999999999994 16284.803799725378
9.299999999999994 16290.654239356329
9.329999999999993 16296.561702137333
9.359999999999992 16302.606291451084
9.389999999999992 16308.852338180606
9.419999999999991 16315.341992144178
9.44999999999999 16322.09152352936
9.47999999999999 16329.09072757381
9.50999999999999 16336.305111504136
9.539999999999988 16343.680876233002
9.569999999999988 16351.151795214353
9.599999999999987 16358.647421562082
9.629999999999987 16366.101152148292
9.659999999999986 16373.45711587334
9.689999999999985 16380.675601462288
9.719999999999985 16387.736847630393
9.749999999999984 16394.64249411027
9.779999999999983 16401.41484364065
9.809999999999983 16408.092960775335
9.839999999999982 16414.72721631632
9.869999999999981 16421.373024025557
9.89999999999998 16428.084405436675
9.92999999999998 16434.908207636032
9.95999999999998 16441.87903942593
9.989999999999979 16449.015847571518
10.019999999999978 15222.208933620295
10.049999999999978 12382.462950081766
10.079999999999977 8388.97198228122
10.109999999999976 3806.719894898782
10.139999999999976 -768.4119640578982
10.169999999999975 -4784.194701330133
10.199999999999974 -7795.603822361179
10.229999999999974 -9510.28393259266
10.259999999999973 -9812.068353456545
10.289999999999973 -8761.695703137775
10.319999999999972 -6576.6257440714635
10.349999999999971 -3593.9991442960822
10.37999999999997 -222.33601833177724
10.40999999999997 3111.6491806388917
10.43999999999997 6014.694784658729
10.469999999999969 8171.280997750587
10.499999999999968 9375.900501279335
10.529999999999967 9550.251259936547
10.559999999999967 8744.137996471745
10.589999999999966 7120.928468061162
10.619999999999965 4930.19114482868
10.649999999999965 2471.676350836001
10.679999999999964 55.667452835644106
10.709999999999964 -2035.1104037322448
10.739999999999963 -3577.396982511521
10.769999999999962 -4429.6493844084425
10.799999999999962 -4542.697509861926
10.829999999999961 -3958.4530491727082
10.85999999999996 -2797.88086471035
10.88999999999996 -1240.5450320713298
10.919999999999959 501.1134330600261
10.949999999999958 2209.316010860354
10.979999999999958 3686.9263967875413
11.009999999999957 4778.9626362486815
11.039999999999957 5387.472490925414
11.069999999999956 5478.555836688126
11.099999999999955 5081.303305010905
11.129999999999955 4279.43463696246
11.159999999999954 3197.169075891937
11.189999999999953 1981.4805836208277
11.219999999999953 783.1194295768034
11.249999999999952 -261.25325497935836
11.279999999999951 -1043.8087432449197
11.30999999999995 -1495.6992253379863
11.33999999999995 -1591.822268040023
11.36999999999995 -1350.0990202036298
11.399999999999949 -825.8384323248919
11.429999999999948 -102.24698920670555
11.459999999999948 721.4727113206736
11.489999999999947 1542.858499683301
11.519999999999946 2268.2192838763817
11.549999999999946 2822.633067451155
11.579999999999945 3156.934589696508
11.609999999999944 3251.149748693258
11.639999999999944 3114.28556297183
11.669999999999943 2780.825613738151
11.699999999999942 2304.6124522868913
11.729999999999942 1751.0568598221928
11.759999999999941 1188.713586009419
11.78999999999994 681.2397180399047
11.81999999999994 280.62427950619497
11.84999999999994 22.343257903747165
11.879999999999939 -77.18054673729878
11.909999999999938 -20.735874549498625
11.939999999999937 171.70210914095634
11.969999999999937 466.7522469679327
11.999999999999936 822.570089688569
12.029999999999935 1194.286860499771
12.059999999999935 1539.2860024575932
12.089999999999934 1821.7367216629698
12.119999999999933 2015.9458924974003
12.149999999999933 2108.265307108081
12.179999999999932 2097.483027132062
12.209999999999932 1993.8013233579884
12.239999999999931 1816.6516259747837
12.26999999999993 1591.703936139272
12.29999999999993 1347.4795307900613
12.329999999999929 1111.9763796586417
12.359999999999928 909.6777595123177
12.389999999999928 759.2331601404621
12.419999999999927 671.9979919235694
12.449999999999926 651.5053711035755
12.479999999999926 693.834955592387
12.509999999999925 788.7490612327061
12.539999999999925 921.3929465213988
12.569999999999924 1074.3198377616984
12.599999999999923 1229.5869760088176
12.629999999999923 1370.692900847594
12.659999999999922 1484.1640822192437
12.689999999999921 1560.6621884261506
12.71999999999992 1595.5469882158234
12.74999999999992 1588.8942931534468
12.77999999999992 1545.0278578090906
12.809999999999919 1471.6653717833194
12.839999999999918 1378.8054188472404
12.869999999999918 1277.4978103256708
12.899999999999917 1178.6333592997642
12.929999999999916 1091.870933903809
12.959999999999916 1024.7953235430884
12.989999999999915 982.363661943097
13.019999999999914 966.6636809650025
13.049999999999914 976.9760464733093
13.079999999999913 1010.1007455238831
13.109999999999912 1060.8898598480057
13.139999999999912 1122.9134831631086
13.169999999999911 1189.1820050099643
13.19999999999991 1252.8538751942872
13.22999999999991 1307.8663116534951
13.25999999999991 1349.4395669387063
13.289999999999909 1374.4210627317816
13.319999999999908 1381.4541288280345
13.349999999999907 1370.972328415191
13.379999999999907 1345.032072903533
13.409999999999906 1307.0116579301628
13.439999999999905 1261.2130278692005
13.469999999999905 1212.4059328747792
13.499999999999904 1165.3593642669052
13.529999999999903 1124.4015485119546
13.559999999999903 1093.044892216884
13.589999999999902 1073.7024546937164
13.619999999999902 1067.5179583501588
13.6499999999999 1074.3176638526916
13.6799999999999 1092.6870780036475
13.7099999999999 1120.1585430064838
13.739999999999899 1153.4885443118121
13.769999999999898 1188.9987712219177
13.799999999999898 1222.9463046961578
13.829999999999897 1251.8877990064248
13.859999999999896 1273.0063457403385
13.889999999999896 1284.3670517814294
13.919999999999895 1285.0806481603977
13.949999999999894 1275.3599614595253
13.979999999999894 1256.465862776283
14.009999999999893 1230.5481162467902
14.039999999999893 1200.400933238282
14.069999999999892 1169.163346858366
14.099999999999891 1139.9875320753727
14.12999999999989 1115.7129325662777
14.15999999999989 1098.582627300356
14.18999999999989 1090.0269186130697
14.219999999999889 1090.5378744499135
14.249999999999888 1099.647815603109
14.279999999999887 1116.006252565877
14.309999999999887 1137.5451882986822
14.339999999999886 1161.716805824998
14.369999999999886 1185.7794585647766
14.399999999999885 1207.0975182119655
14.429999999999884 1223.420645979475
14.459999999999884 1233.1153919544918
14.489999999999883 1235.3222943707535
14.519999999999882 1230.0233796280452
14.549999999999882 1218.017080075536
14.579999999999881 1200.8069434287436
14.60999999999988 1180.4158046174432
14.63999999999988 1159.1475282704553
14.66999999999988 1139.3245919662006
14.699999999999878 1123.0328060913016
14.729999999999878 1111.9005604177967
14.759999999999877 1106.9351859286548
14.789999999999877 1108.4329618191512
14.819999999999876 1115.9716476762715
14.849999999999875 1128.4825824978016
14.879999999999875 1144.3914785439142
14.909999999999874 1161.8108611144569
14.939999999999873 1178.7610736684169
14.969999999999873 1193.3941320369458
14.999999999999872 1204.1929671323699
15.029999999999871 1210.1261813129406
15.05999999999987 1210.744064103292
15.08999999999987 1206.2048647505803
15.11999999999987 1197.2331504931678
15.149999999999869 1185.016494019423
15.179999999999868 1171.0547966140584
15.209999999999868 1156.9794983372924
15.239999999999867 1144.3648003202456
15.269999999999866 1134.5531629885422
15.299999999999866 1128.5143953991164
15.329999999999865 1126.7521101215564
15.359999999999864 1129.2670083766266
15.389999999999864 1135.578415622692
15.419999999999863 1144.7983404078595
15.449999999999863 1155.750690465638
15.479999999999862 1167.1167962543157
15.509999999999861 1177.5896192819819
15.53999999999986 1186.0192750798676
15.56999999999986 1191.5354810930455
15.59999999999986 1193.6312185805984
15.629999999999859 1192.2014439147822
15.659999999999858 1187.5365113330263
15.689999999999857 1180.2705406972793
15.719999999999857 1171.2940740529286
15.749999999999856 1161.641201254727
15.779999999999855 1152.3670613038212
15.809999999999855 1144.4294082565118
15.839999999999854 1138.5853260958438
15.869999999999854 1135.3148018699917
15.899999999999853 1134.7790366519862
15.929999999999852 1136.8199368625912
15.959999999999852 1140.9931355943177
15.989999999999851 1146.6318021336738
16.01999999999985 1152.934311996592
16.04999999999985 1159.0631909224405
16.079999999999853 1164.242071067754
16.109999999999854 1167.8403148369396
16.139999999999855 1169.4364810382567
16.169999999999856 1168.8553517677362
16.199999999999857 1166.1745902814685
