# Results for "element" with Id # 53187 for search config "initial" at position: x0: -31.3; y0: 0; z0: 0
# time PRESSURE
0.03 1377.0186070134532
0.06 3937.80479428714
0.09 7396.0469219718425
0.12 11398.872201481674
0.15 15559.919241030706
0.18 19494.534424352772
0.21 22853.752669018682
0.24 25354.22868865946
0.27 26801.66304403339
0.30000000000000004 27105.730035019507
0.33000000000000007 26285.16501487609
0.3600000000000001 24462.53372064584
0.3900000000000001 21849.231046827823
0.42000000000000015 18722.302374300514
0.4500000000000002 15395.594872480731
0.4800000000000002 12188.354244074184
0.5100000000000002 9394.584361792817
0.5400000000000003 7256.257018175568
0.5700000000000003 5942.85729572114
0.6000000000000003 5538.909809433715
0.6300000000000003 6040.183116155665
0.6600000000000004 7358.378255759998
0.6900000000000004 9333.329657491657
0.7200000000000004 11751.176750110657
0.7500000000000004 14366.562569413029
0.7800000000000005 16926.70464227802
0.8100000000000005 19195.129321381213
0.8400000000000005 20972.962729953404
0.8700000000000006 22115.93192985662
0.9000000000000006 22545.63723120536
0.9300000000000006 22254.21271659574
0.9600000000000006 21302.12454263227
0.9900000000000007 19809.543083297827
1.0200000000000007 17942.33970844634
1.0500000000000007 15894.280121494317
1.0800000000000007 13867.312412663818
1.1100000000000008 12051.964954609606
1.1400000000000008 10609.765238832926
1.1700000000000008 9659.287021726828
1.2000000000000008 9266.987127680033
1.2300000000000009 9443.446508490999
1.260000000000001 10145.079366691487
1.290000000000001 11280.843786160107
1.320000000000001 12723.061367705071
1.350000000000001 14321.12977465966
1.380000000000001 15916.72472247079
1.410000000000001 17359.030812778517
1.440000000000001 18518.605914160595
1.470000000000001 19298.662251083155
1.500000000000001 19642.8149400217
1.5300000000000011 19538.703762880723
1.5600000000000012 19017.284037418187
1.5900000000000012 18148.003246805416
1.6200000000000012 17030.471836568024
1.6500000000000012 15783.561378474154
1.6800000000000013 14533.096155680321
1.7100000000000013 13399.403711477808
1.7400000000000013 12485.954435660382
1.7700000000000014 11870.156247254798
1.8000000000000014 11597.107572531633
1.8300000000000014 11676.771360824674
1.8600000000000014 12084.679414993636
1.8900000000000015 12765.919771738261
1.9200000000000015 13641.862266651458
1.9500000000000015 14618.845985211785
1.9800000000000015 15597.904768127972
2.0100000000000016 16484.555560709403
2.0400000000000014 17197.71324873999
2.070000000000001 17676.91804700233
2.100000000000001 17887.250153663274
2.130000000000001 17821.554659327365
2.1600000000000006 17499.86587294166
2.1900000000000004 16966.203268444944
2.22 16283.159794871912
2.25 15524.907105740085
2.28 14769.380528091244
2.3099999999999996 14090.453814323451
2.3399999999999994 13550.882730083089
2.369999999999999 13196.680776680794
2.399999999999999 13053.41747615206
2.429999999999999 13124.709251233426
2.4599999999999986 13392.94605417981
2.4899999999999984 13822.069079967498
2.5199999999999982 14362.025962221263
2.549999999999998 14954.385244752597
2.579999999999998 15538.501184279934
2.6099999999999977 16057.598604722914
2.6399999999999975 16464.181998991466
2.6699999999999973 16724.26705503665
2.699999999999997 16820.0706819794
2.729999999999997 16750.962938856053
2.7599999999999967 16532.66683078032
2.7899999999999965 16194.869045134656
2.8199999999999963 15777.556893367368
2.849999999999996 15326.510390919197
2.879999999999996 14888.446293037787
2.9099999999999957 14506.319125973214
2.9399999999999955 14215.24417345762
2.9699999999999953 14039.418812884356
2.999999999999995 13990.297142765046
3.029999999999995 14066.13377685003
3.0599999999999947 14252.867292934783
3.0899999999999945 14526.18293250237
3.1199999999999943 14854.484683197456
3.149999999999994 15202.433157415411
3.179999999999994 15534.665858944818
3.2099999999999937 15819.320861356395
3.2399999999999936 16031.022850477277
3.2699999999999934 16153.062231404125
3.299999999999993 16178.592199108885
3.329999999999993 16110.774722401138
3.3599999999999928 15961.916987278195
3.3899999999999926 15751.737532414456
3.4199999999999924 15504.983415174886
3.449999999999992 15248.672233956295
3.479999999999992 15009.25787597227
3.509999999999992 14810.009914778748
3.5399999999999916 14668.858673090299
3.5699999999999914 14596.897648560118
3.599999999999991 14597.657991513242
3.629999999999991 14667.184072366965
3.659999999999991 14794.857560417697
3.6899999999999906 14964.84507741839
3.7199999999999904 15157.987694907772
3.7499999999999902 15353.917636522123
3.77999999999999 15533.17548160334
3.80999999999999 15679.114491899869
3.8399999999999896 15779.41234732547
3.8699999999999894 15827.059866230738
3.8999999999999893 15820.75634038328
3.929999999999989 15764.706103968081
3.959999999999989 15667.87088350578
3.9899999999999887 15542.785163293662
4.019999999999989 15404.080270545786
4.049999999999989 15266.883211238197
4.079999999999989 15145.260520806165
4.10999999999999 15050.86204734125
4.13999999999999 14991.890350450562
4.16999999999999 14972.48085869727
4.19999999999999 14992.531090590684
4.229999999999991 15047.96882761188
4.259999999999991 15131.406173505075
4.289999999999991 15233.089295827402
4.319999999999991 15342.029541233624
4.349999999999992 15447.19043500243
4.379999999999992 15538.60636935742
4.409999999999992 15608.323726715713
4.439999999999992 15651.079886060319
4.469999999999993 15664.667299831302
4.499999999999993 15649.96520258071
4.529999999999993 15610.65650913239
4.559999999999993 15552.678073049266
4.589999999999994 15483.477179731673
4.619999999999994 15411.161820034471
4.649999999999994 15343.638042372972
4.679999999999994 15287.822638153057
4.709999999999995 15249.00669307427
4.739999999999995 15230.424893750063
4.769999999999995 15233.061219621448
4.799999999999995 15255.695387573323
4.829999999999996 15295.170117227348
4.859999999999996 15346.83707460752
4.889999999999996 15405.124931778157
4.919999999999996 15464.16368426425
4.949999999999997 15518.398443979453
4.979999999999997 15563.130659758539
5.009999999999997 15594.936369893741
5.039999999999997 15611.927331401901
5.069999999999998 15613.839378736171
5.099999999999998 15601.950627101509
5.129999999999998 15578.84846399196
5.159999999999998 15548.080066399014
5.189999999999999 15513.72922913704
5.219999999999999 15479.967428366359
5.249999999999999 15450.626529398087
5.279999999999999 15428.835201621234
5.31 15416.75137687904
5.34 15415.411119198518
5.37 15424.701143374328
5.4 15443.449593556852
5.430000000000001 15469.617382633816
5.460000000000001 15500.564061062092
5.490000000000001 15533.35556652888
5.520000000000001 15565.080005642938
5.550000000000002 15593.138896682722
5.580000000000002 15615.486492549515
5.610000000000002 15630.79626700878
5.640000000000002 15638.543178679114
5.670000000000003 15638.999885353653
5.700000000000003 15633.153111146523
5.730000000000003 15622.554125751238
5.760000000000003 15609.122983939451
5.790000000000004 15594.92967423784
5.820000000000004 15581.976634863073
5.850000000000004 15572.003612800865
5.880000000000004 15566.332669920783
5.910000000000005 15565.766546656729
5.940000000000005 15570.546047690132
5.970000000000005 15580.366345568655
6.000000000000005 15594.446318451455
6.030000000000006 15611.640827850792
6.060000000000006 15630.581382201668
6.090000000000006 15649.827689050051
6.120000000000006 15668.015056464645
6.150000000000007 15683.984020065569
6.180000000000007 15696.880337169905
6.210000000000007 15706.216620805217
6.240000000000007 15711.89365136722
6.270000000000008 15714.181914530249
6.300000000000008 15713.668046146986
6.330000000000008 15711.174282696458
6.360000000000008 15707.660916060973
6.390000000000009 15704.122395533985
6.420000000000009 15701.487831331477
6.450000000000009 15700.535153452929
6.480000000000009 15701.825669600867
6.51000000000001 15705.66493567083
6.54000000000001 15712.091575730541
6.57000000000001 15720.892296039214
6.60000000000001 15731.640110306082
6.6300000000000106 15743.750663208077
6.660000000000011 15756.549752314762
6.690000000000011 15769.344584899553
6.720000000000011 15781.491777181669
6.7500000000000115 15792.45567418515
6.780000000000012 15801.851999674458
6.810000000000012 15809.474589370537
6.840000000000012 15815.302855729113
6.8700000000000125 15819.491703309519
6.900000000000013 15822.34470409923
6.930000000000013 15824.274594794932
6.960000000000013 15825.757335608094
6.9900000000000135 15827.283227977581
7.020000000000014 15829.309132310254
7.050000000000014 15832.217003329724
7.080000000000014 15836.281872760504
7.1100000000000145 15841.651905391693
7.140000000000015 15848.341903545392
7.170000000000015 15856.239602841557
7.200000000000015 15865.123863809724
7.2300000000000155 15874.69195852165
7.260000000000016 15884.592715356579
7.290000000000016 15894.462302096179
7.320000000000016 15903.95930629656
7.3500000000000165 15912.796263179524
7.380000000000017 15920.76388568756
7.410000000000017 15927.746675704104
7.440000000000017 15933.728962436
7.4700000000000175 15938.791247767214
7.500000000000018 15943.097781600958
7.530000000000018 15946.87675910071
7.560000000000018 15950.395266570384
7.5900000000000185 15953.93156165781
7.620000000000019 15957.74748123296
7.650000000000019 15962.063669460085
7.680000000000019 15967.040028738107
7.7100000000000195 15972.762492694219
7.74000000000002 15979.237392277148
7.77000000000002 15986.394437735851
7.80000000000002 15994.096765371321
7.8300000000000205 16002.157228398522
7.860000000000021 16010.358779072825
7.890000000000021 16018.47695783245
7.920000000000021 16026.302087777447
7.9500000000000215 16033.659674476572
7.980000000000022 16040.426215052179
8.010000000000021 16046.539516802846
8.04000000000002 16052.002558452694
8.07000000000002 16056.880677686791
8.10000000000002 16061.292821823778
8.130000000000019 16065.397608606783
8.160000000000018 16069.375821923713
8.190000000000017 16073.411299760743
8.220000000000017 16077.672044395002
8.250000000000016 16082.293827783664
8.280000000000015 16087.36798011502
8.310000000000015 16092.933659034377
8.340000000000014 16098.97589831759
8.370000000000013 16105.42929526375
8.400000000000013 16112.186904096832
8.430000000000012 16119.113188188729
8.460000000000012 16126.059680905128
8.49000000000001 16132.881368441927
8.52000000000001 16139.452268308132
8.55000000000001 16145.67852903139
8.580000000000009 16151.507732389484
8.610000000000008 16156.933514681643
8.640000000000008 16161.995389284617
8.670000000000007 16166.773619937549
8.700000000000006 16171.379869200042
8.730000000000006 16175.944810592282
8.760000000000005 16180.604023673919
8.790000000000004 16185.484457958471
8.820000000000004 16190.691725797598
8.850000000000003 16196.300341933815
8.880000000000003 16202.347568876829
8.910000000000002 16208.83166734721
8.940000000000001 16215.714226548753
8.97 16222.926349217458
9.0 16230.377521966298
9.03 16237.966638672158
9.059999999999999 16245.593945999617
9.089999999999998 16253.171757287735
9.119999999999997 16260.633666361055
9.149999999999997 16267.94128353398
9.179999999999996 16275.087306075708
9.209999999999996 16282.094731498111
9.239999999999995 16289.012856260917
9.269999999999994 16295.910553285594
9.299999999999994 16302.867578088122
9.329999999999993 16309.964728990024
9.359999999999992 16317.274441099695
9.389999999999992 16324.85258205632
9.419999999999991 16332.73226888776
9.44999999999999 16340.920121319217
9.47999999999999 16349.395857106429
9.50999999999999 16358.11440553781
9.539999999999988 16367.011311916878
9.569999999999988 16376.009757084297
9.599999999999987 16385.029343690876
9.629999999999987 16393.99415606324
9.659999999999986 16402.83973523841
9.689999999999985 16411.51878005504
9.719999999999985 16420.004704845545
9.749999999999984 16428.293217255417
9.779999999999983 16436.401869918176
9.809999999999983 16444.366087908675
9.839999999999982 16452.23368385643
9.869999999999981 16460.058487446608
9.89999999999998 16467.893684869836
9.92999999999998 16475.78601210804
9.95999999999998 16483.770849804343
9.989999999999979 16491.868895898962
10.019999999999978 15262.268527650866
10.049999999999978 12416.927749342321
10.079999999999977 8419.327186927621
10.109999999999976 3837.7340454941886
10.139999999999976 -730.8221082179413
10.169999999999975 -4735.278207578548
10.199999999999974 -7733.404972496306
10.229999999999974 -9436.1263962884
10.259999999999973 -9729.925014264976
10.289999999999973 -8676.856807314522
10.319999999999972 -6494.216522965083
10.349999999999971 -3517.8290892742643
10.37999999999997 -154.3298777484248
10.40999999999997 3171.442094645452
10.43999999999997 6067.6942214044875
10.469999999999969 8219.811002118175
10.499999999999968 9422.658780040148
10.529999999999967 9597.906040959902
10.559999999999967 8795.068588132623
10.589999999999966 7177.0564266714055
10.619999999999965 4992.861416084253
10.649999999999965 2541.56243260939
10.679999999999964 132.71057823684203
10.709999999999964 -1951.6991255899954
10.739999999999963 -3489.045726387717
10.769999999999962 -4338.240745361762
10.799999999999962 -4450.306543776591
10.829999999999961 -3867.05451109955
10.85999999999996 -2709.0683427742033
10.88999999999996 -1155.3184857791966
10.919999999999959 582.4625926002966
10.949999999999958 2287.2065483208794
10.979999999999958 3762.382896026182
11.009999999999957 4853.428361340302
11.039999999999957 5462.577330136204
11.069999999999956 5555.877432836081
11.099999999999955 5162.161716024126
11.129999999999955 4364.740926215273
11.159999999999954 3287.3484957875867
11.189999999999953 2076.4669231151956
11.219999999999953 882.411623759855
11.249999999999952 -158.48755317713162
11.279999999999951 -938.6011434707002
11.30999999999995 -1389.1398482177565
11.33999999999995 -1484.9256128250895
11.36999999999995 -1243.6907095211566
11.399999999999949 -720.4698500361601
11.429999999999948 1.8524050658750033
11.459999999999948 824.4047771306658
11.489999999999947 1645.0280173172966
11.519999999999946 2370.270756148142
11.549999999999946 2925.360422851599
11.579999999999945 3261.1758909242762
11.609999999999944 3357.6793453281257
11.639999999999944 3223.718297732588
11.669999999999943 2893.5440682860367
11.699999999999942 2420.728232191868
11.729999999999942 1870.409069947575
11.759999999999941 1310.9028017016446
11.78999999999994 805.6934137452241
11.81999999999994 406.68205180079843
11.84999999999994 149.3496392967471
11.879999999999939 50.21041049554825
11.909999999999938 106.63603137729058
11.939999999999937 298.8538041909529
11.969999999999937 593.6963471523638
11.999999999999936 949.5132350994452
12.029999999999935 1321.584724363718
12.059999999999935 1667.3805826195028
12.089999999999934 1951.086042865767
12.119999999999933 2146.956865146208
12.149999999999933 2241.238861797134
12.179999999999932 2232.5776236357488
12.209999999999932 2131.0186634666247
12.239999999999931 1955.844431680159
12.26999999999993 1732.6029471840386
12.29999999999993 1489.733995463103
12.329999999999929 1255.201695279386
12.359999999999928 1053.50304281681
12.389999999999928 903.3424520819801
12.419999999999927 816.160979250871
12.449999999999926 795.5948620470493
12.479999999999926 837.8288040233283
12.509999999999925 932.7188288200923
12.539999999999925 1065.4809993636445
12.569999999999924 1218.7091785911784
12.599999999999923 1374.4685957141498
12.629999999999923 1516.2344247808055
12.659999999999922 1630.4844582748728
12.689999999999921 1707.8145496383477
12.71999999999992 1743.5116731361572
12.74999999999992 1737.5824050035446
12.77999999999992 1694.293180669226
12.809999999999919 1621.3227069422962
12.839999999999918 1528.6523862572508
12.869999999999918 1427.337666590827
12.899999999999917 1328.2956244918794
12.929999999999916 1241.2273203858506
12.959999999999916 1173.769068585103
12.989999999999915 1130.9312583697663
13.019999999999914 1114.8498384761235
13.049999999999914 1124.842722764379
13.079999999999913 1157.7324671187587
13.109999999999912 1208.3772993877783
13.139999999999912 1270.3378332843997
13.169999999999911 1336.603362345356
13.19999999999991 1400.304337723567
13.22999999999991 1455.347610871094
13.25999999999991 1496.9247923610092
13.289999999999909 1521.8599902258711
13.319999999999908 1528.7810019886524
13.349999999999907 1518.114378748557
13.379999999999907 1491.918748682046
13.409999999999906 1453.5836271570768
13.439999999999905 1407.4296781193973
13.469999999999905 1358.2510883036314
13.499999999999904 1310.8432962614243
13.529999999999903 1269.5587719753757
13.559999999999903 1237.9273597590866
13.589999999999902 1218.370509656794
13.619999999999902 1212.0312858838454
13.6499999999999 1218.7280403903846
13.6799999999999 1237.0322146694443
13.7099999999999 1264.4581223969817
13.739999999999899 1297.7430790815906
13.769999999999898 1333.1903263411714
13.799999999999898 1367.0410780471486
13.829999999999897 1395.8407082470917
13.859999999999896 1416.7658268406915
13.889999999999896 1427.8803186301561
13.919999999999895 1428.2981732595376
13.949999999999894 1418.2389119626066
13.979999999999894 1398.9718959236377
14.009999999999893 1372.6563913206182
14.039999999999893 1342.0965400110392
14.069999999999892 1310.4377657336172
14.099999999999891 1280.835158689761
14.12999999999989 1256.1287899085373
14.15999999999989 1238.5593344967072
14.18999999999989 1229.551761960619
14.219999999999889 1229.5899513664988
14.249999999999888 1238.1945851697687
14.279999999999887 1254.0018077988602
14.309999999999887 1274.932326055557
14.339999999999886 1298.4322104586613
14.369999999999886 1321.758058842231
14.399999999999885 1342.2751812300335
14.429999999999884 1357.7364881385215
14.459999999999884 1366.5125403277425
14.489999999999883 1367.7481582933922
14.519999999999882 1361.4306126922743
14.549999999999882 1348.3645327072745
14.579999999999881 1330.0587536447515
14.60999999999988 1308.5397397206505
14.63999999999988 1286.1137716334451
14.66999999999988 1265.105160243911
14.699999999999878 1247.6005925443765
14.729999999999878 1235.227972998342
14.759999999999877 1228.9932907921002
14.789999999999877 1229.1914187903708
14.819999999999876 1235.398997135899
14.849999999999875 1246.5468809723832
14.879999999999875 1261.0615860082569
14.909999999999874 1277.0577346965008
14.939999999999873 1292.558851966934
14.969999999999873 1305.7206705745034
14.999999999999872 1315.030208852639
15.029999999999871 1319.4606351555658
15.05999999999987 1318.5667524549024
15.08999999999987 1312.5110752566757
15.11999999999987 1302.021753530389
15.149999999999869 1288.2887269398834
15.179999999999868 1272.8123399944925
15.209999999999868 1257.223099793993
15.239999999999867 1243.0941169504947
15.269999999999866 1231.7668756218327
15.299999999999866 1224.2102375188922
15.329999999999865 1220.9273787199165
15.359999999999864 1221.9192199989834
15.389999999999864 1226.7066816356992
15.419999999999863 1234.4054391470415
15.449999999999863 1243.8440164826197
15.479999999999862 1253.708564231693
15.509999999999861 1262.6965345277881
15.53999999999986 1269.662396683814
15.56999999999986 1273.739453599884
15.59999999999986 1274.4238538865375
15.629999999999859 1271.6140410721455
15.659999999999858 1265.6035725812912
15.689999999999857 1257.0293114331735
15.719999999999857 1246.7833066134829
15.749999999999856 1235.8995643299454
15.779999999999855 1225.4313049800444
15.809999999999855 1216.332361972682
15.839999999999854 1209.3551191438548
15.869999999999854 1204.9753569368556
15.899999999999853 1203.351162116905
15.929999999999852 1204.3215551408898
15.959999999999852 1207.4403728255527
15.989999999999851 1212.0398039174345
16.01999999999985 1217.3170911404727
16.04999999999985 1222.4321613540676
16.079999999999853 1226.604144196322
16.109999999999854 1229.196919037328
16.139999999999855 1229.783951430345
16.169999999999856 1228.186266210178
16.199999999999857 1224.4793947329615
16.22999999999986 1218.9711694326677
