# Results for "element" with Id # 9940 for search config "initial" at position: x0: -31.3; y0: 0; z0: 39.4736526316
# time PRESSURE
0.03 1377.0073952515527
0.06 3937.7875082613064
0.09 7396.049725603456
0.12 11398.944071226095
0.15 15560.13142051051
0.18 19494.97665191559
0.21 22854.524780393138
0.24 25355.426752616597
0.27 26803.360763477503
0.30000000000000004 27107.95822550781
0.33000000000000007 26287.893510177244
0.3600000000000001 24465.660220428203
0.3900000000000001 21852.58095342478
0.42000000000000015 18725.64104453817
0.4500000000000002 15398.651367220373
0.4800000000000002 12190.853278183682
0.5100000000000002 9396.281609759757
0.5400000000000003 7256.972489228829
0.5700000000000003 5942.501921328672
0.6000000000000003 5537.502046199504
0.6300000000000003 6037.853514425245
0.6600000000000004 7355.362408485699
0.6900000000000004 9329.949391947168
0.7200000000000004 11747.811268478097
0.7500000000000004 14363.611147197174
0.7800000000000005 16924.543733532617
0.8100000000000005 19194.068042055373
0.8400000000000005 20973.201730294066
0.8700000000000006 22117.53156162092
0.9000000000000006 22548.500367435063
0.9300000000000006 22258.086946243704
0.9600000000000006 21306.624770584593
0.9900000000000007 19814.194561724446
1.0200000000000007 17946.63586597705
1.0500000000000007 15897.747923284962
1.0800000000000007 13869.57575678886
1.1100000000000008 12052.796642379304
1.1400000000000008 10609.119734012855
1.1700000000000008 9657.308883109807
1.2000000000000008 9263.993881392487
1.2300000000000009 9439.887530678849
1.260000000000001 10141.47640582309
1.290000000000001 11277.720238005748
1.320000000000001 12720.870083174847
1.350000000000001 14320.189738707732
1.380000000000001 15917.176426294436
1.410000000000001 17360.817963994465
1.440000000000001 18521.48714301475
1.470000000000001 19302.251573174573
1.500000000000001 19646.644081208142
1.5300000000000011 19542.295978325248
1.5600000000000012 19020.226497538533
1.5900000000000012 18150.00581073465
1.6200000000000012 17031.40349430073
1.6500000000000012 15783.458990245657
1.6800000000000013 14532.14580884971
1.7100000000000013 13397.899523045686
1.7400000000000013 12484.243186112559
1.7700000000000014 11868.57804587473
1.8000000000000014 11595.943205250709
1.8300000000000014 11676.204641716165
1.8600000000000014 12084.780142409072
1.8900000000000015 12766.648250310844
1.9200000000000015 13643.092059097065
1.9500000000000015 14620.398868598586
1.9800000000000015 15599.589744634639
2.0100000000000016 16486.20396215767
2.0400000000000014 17199.203705255273
2.070000000000001 17678.187997624795
2.100000000000001 17888.293452504593
2.130000000000001 17822.40814692568
2.1600000000000006 17500.589307647882
2.1900000000000004 16966.858211807605
2.22 16283.792767548763
2.25 15525.540193560139
2.28 14770.010990870476
2.3099999999999996 14091.061555722179
2.3399999999999994 13551.442789017141
2.369999999999999 13197.176818008324
2.399999999999999 13053.852570519077
2.429999999999999 13125.11091334585
2.4599999999999986 13393.364468009231
2.4899999999999984 13822.569000550384
2.5199999999999982 14362.67407144454
2.549999999999998 14955.236258794974
2.579999999999998 15539.585670989929
2.6099999999999977 16058.915295376757
2.6399999999999975 16465.696202587787
2.6699999999999973 16725.91549552598
2.699999999999997 16821.77179329143
2.729999999999997 16752.630479473544
2.7599999999999967 16534.22414436474
2.7899999999999965 16196.261242707356
2.8199999999999963 15778.75907235841
2.849999999999996 15327.530345657646
2.879999999999996 14889.321775227087
2.9099999999999957 14507.110440877614
2.9399999999999955 14216.023771050792
2.9699999999999953 14040.259860505295
2.999999999999995 13991.262994759078
3.029999999999995 14067.26998174623
3.0599999999999947 14254.197088459157
3.0899999999999945 14527.706593876712
3.1199999999999943 14856.182129134788
3.149999999999994 15204.269245795474
3.179999999999994 15536.597046400166
3.2099999999999937 15821.30210173835
3.2399999999999936 16033.013648640774
3.2699999999999934 16155.031104770242
3.299999999999993 16180.519204686652
3.329999999999993 16112.651997947887
3.3599999999999928 15963.747662591148
3.3899999999999926 15753.533420860711
3.4199999999999924 15506.762268033403
3.449999999999992 15250.454842239602
3.479999999999992 15011.0655143912
3.509999999999992 14811.862386308923
3.5399999999999916 14670.772963215975
3.5699999999999914 14598.887130438387
3.599999999999991 14599.732096151189
3.629999999999991 14669.348217276398
3.659999999999991 14797.11322509472
3.6899999999999906 14967.190001358425
3.7199999999999904 15160.41604758922
3.7499999999999902 15356.420419339915
3.77999999999999 15535.741124146803
3.80999999999999 15681.72968589891
3.8399999999999896 15782.063171150501
3.8699999999999894 15829.73312386473
3.8999999999999893 15823.440932902537
3.929999999999989 15767.394292278303
3.959999999999989 15670.55921589644
3.9899999999999887 15545.474890619778
4.019999999999989 15406.777229689491
4.049999999999989 15269.59703812394
4.079999999999989 15148.003354596984
4.10999999999999 15053.646901179112
4.13999999999999 14994.72939670738
4.16999999999999 14975.383873089322
4.19999999999999 14995.504269658057
4.229999999999991 15051.014117052842
4.259999999999991 15134.521189105692
4.289999999999991 15236.267819631557
4.319999999999991 15345.26236166624
4.349999999999992 15450.466540061996
4.379999999999992 15541.914220990759
4.409999999999992 15611.652458276203
4.439999999999992 15654.420270142551
4.469999999999993 15668.012424552397
4.499999999999993 15653.310797622444
4.529999999999993 15614.000952431692
4.559999999999993 15556.022104166748
4.589999999999994 15486.823402273641
4.619999999999994 15414.514057317057
4.649999999999994 15347.000654453512
4.679999999999994 15291.199786899799
4.709999999999995 15252.401669518636
4.739999999999995 15233.839544845134
4.769999999999995 15236.495536099936
4.799999999999995 15259.147256615717
4.829999999999996 15298.635262451122
4.859999999999996 15350.309208873003
4.889999999999996 15408.59609544014
4.919999999999996 15467.624747310987
4.949999999999997 15521.839659858057
4.979999999999997 15566.54231146701
5.009999999999997 15598.309399481903
5.039999999999997 15615.253844905128
5.069999999999998 15617.112968194626
5.099999999999998 15605.1665042819
5.129999999999998 15582.003349797908
5.159999999999998 15551.17188808789
5.189999999999999 15516.756648625698
5.219999999999999 15482.929317551774
5.249999999999999 15453.521419484054
5.279999999999999 15431.660793891526
5.31 15419.504183542585
5.34 15418.086222902313
5.37 15427.292112591056
5.4 15445.948557364063
5.430000000000001 15472.015273334458
5.460000000000001 15502.85099109167
5.490000000000001 15535.521252789982
5.520000000000001 15567.114165601575
5.550000000000002 15595.031653634684
5.580000000000002 15617.22871786574
5.610000000000002 15632.379794839118
5.640000000000002 15639.960919447827
5.670000000000003 15640.245822127692
5.700000000000003 15634.222142414867
5.730000000000003 15623.441793876871
5.760000000000003 15609.825102515493
5.790000000000004 15595.441964901818
5.820000000000004 15582.294474300163
5.850000000000004 15572.121863952409
5.880000000000004 15566.245566652366
5.910000000000005 15565.467641194868
5.940000000000005 15570.02832106069
5.970000000000005 15579.62237507341
6.000000000000005 15593.468502472206
6.030000000000006 15610.421706033863
6.060000000000006 15629.113821032282
6.090000000000006 15648.105179596096
6.120000000000006 15666.031945562654
6.150000000000007 15681.735468760047
6.180000000000007 15694.362123433852
6.210000000000007 15703.425101044224
6.240000000000007 15708.825699507039
6.270000000000008 15710.834788911154
6.300000000000008 15710.03928634601
6.330000000000008 15707.261723720974
6.360000000000008 15703.462681300467
6.390000000000009 15699.636822610426
6.420000000000009 15696.713344563552
6.450000000000009 15695.470153715709
6.480000000000009 15696.468513484078
6.51000000000001 15700.013943486498
6.54000000000001 15706.145152960478
6.57000000000001 15714.649212302462
6.60000000000001 15725.099634614571
6.6300000000000106 15736.912689160508
6.660000000000011 15749.414960523975
6.690000000000011 15761.914469572148
6.720000000000011 15773.7685678372
6.7500000000000115 15784.442278314616
6.780000000000012 15793.551912032992
6.810000000000012 15800.891887009944
6.840000000000012 15806.44221397278
6.8700000000000125 15810.358239476764
6.900000000000013 15812.943825659539
6.930000000000013 15814.611914178753
6.960000000000013 15815.838652389082
6.9900000000000135 15817.114598070177
7.020000000000014 15818.896982872973
7.050000000000014 15821.568282473108
7.080000000000014 15825.404118225852
7.1100000000000145 15830.553308774164
7.140000000000015 15837.031442252879
7.170000000000015 15844.727118621437
7.200000000000015 15853.420076596445
7.2300000000000155 15862.808522797353
7.260000000000016 15872.542213024728
7.290000000000016 15882.258217244447
7.320000000000016 15891.61600985887
7.3500000000000165 15900.329022898379
7.380000000000017 15908.18882319717
7.410000000000017 15915.080702708789
7.440000000000017 15920.989740874547
7.4700000000000175 15925.997177040394
7.500000000000018 15930.268061912539
7.530000000000018 15934.031441808664
7.560000000000018 15937.555284668939
7.5900000000000185 15941.118735530385
7.620000000000019 15944.984520252136
7.650000000000019 15949.374137140894
7.680000000000019 15954.448328833972
7.7100000000000195 15960.293900342122
7.74000000000002 15966.91818411384
7.77000000000002 15974.251805684517
7.80000000000002 15982.158640733556
7.8300000000000205 15990.452108667381
7.860000000000021 15998.915552790739
7.890000000000021 16007.324764776671
7.920000000000021 16015.47026501954
7.9500000000000215 16023.17779873981
7.980000000000022 16030.324219803344
8.010000000000021 16036.847835153167
8.04000000000002 16042.752329243931
8.07000000000002 16048.103912646482
8.10000000000002 16053.02247745212
8.130000000000019 16057.667508072984
8.160000000000018 16062.22045769393
8.190000000000017 16066.865498450254
8.220000000000017 16071.770522033661
8.250000000000016 16077.070670072242
8.280000000000015 16082.856108515067
8.310000000000015 16089.164267609978
8.340000000000014 16095.977878999054
8.370000000000013 16103.228623209583
8.400000000000013 16110.806072747468
8.430000000000012 16118.57071259902
8.460000000000012 16126.36968917655
8.49000000000001 16134.053248211101
8.52000000000001 16141.490363726529
8.55000000000001 16148.581868565596
8.580000000000009 16155.269802175299
8.610000000000008 16161.542020710274
8.640000000000008 16167.431981975726
8.670000000000007 16173.013638625715
8.700000000000006 16178.392140989563
8.730000000000006 16183.691462729508
8.760000000000005 16189.040330136624
8.790000000000004 16194.558818961776
8.820000000000004 16200.345742592463
8.850000000000003 16206.468963787976
8.880000000000003 16212.959374197351
8.910000000000002 16219.809192927856
8.940000000000001 16226.974396484839
8.97 16234.381011810181
9.0 16241.934129129813
9.03 16249.529054064436
9.059999999999999 16257.063240039919
9.089999999999998 16264.447129717595
9.119999999999997 16271.61341779389
9.149999999999997 16278.523761643832
9.179999999999996 16285.171914205803
9.209999999999996 16291.582947014644
9.239999999999995 16297.809219151159
9.269999999999994 16303.923649761495
9.299999999999994 16310.011077802164
9.329999999999993 16316.158357441895
9.359999999999992 16322.44485694138
9.389999999999992 16328.934168651685
9.419999999999991 16335.667788119566
9.44999999999999 16342.661309102958
9.47999999999999 16349.903895691732
9.50999999999999 16357.3602904682
9.539999999999988 16364.976051806585
9.569999999999988 16372.684307568092
9.599999999999987 16380.41432525846
9.629999999999987 16388.099368243333
9.659999999999986 16395.683437674335
9.689999999999985 16403.126836923886
9.719999999999985 16410.409724574376
9.749999999999984 16417.533708639534
9.779999999999983 16424.521399387835
9.809999999999983 16431.41234399231
9.839999999999982 16438.257500285323
9.869999999999981 16445.112912297147
9.89999999999998 16452.033113044898
9.92999999999998 16459.06542100462
9.95999999999998 16466.245133290056
9.989999999999979 16473.592214129825
10.019999999999978 15244.512549824147
10.049999999999978 12400.32745871855
10.079999999999977 8402.699796851386
10.109999999999976 3818.726585010162
10.139999999999976 -754.5769427940273
10.169999999999975 -4765.065063972089
10.199999999999974 -7768.865762271591
10.229999999999974 -9475.419121778687
10.259999999999973 -9770.457143431007
10.289999999999973 -8716.228676701274
10.319999999999972 -6530.982820029944
10.349999999999971 -3551.81506745512
10.37999999999997 -186.4504926003737
10.40999999999997 3139.7100684665343
10.43999999999997 6034.931616442261
10.469999999999969 8185.12217427682
10.499999999999968 9385.844225636905
10.529999999999967 9559.339943064953
10.559999999999967 8755.386648650809
10.589999999999966 7136.813328347449
10.619999999999965 4952.2956566723615
10.649999999999965 2500.5370517510883
10.679999999999964 90.82180001866251
10.709999999999964 -1994.9149141336875
10.739999999999963 -3533.898789472166
10.769999999999962 -4384.748239434686
10.799999999999962 -4498.167713251013
10.829999999999961 -3915.734200995218
10.85999999999996 -2757.952017847571
10.88999999999996 -1203.8817208167884
10.919999999999959 534.5198220896912
10.949999999999958 2239.89709564251
10.979999999999958 3715.449294951321
11.009999999999957 4806.425648379615
11.039999999999957 5414.99154463432
11.069999999999956 5507.246165622025
11.099999999999955 5112.165300910541
11.129999999999955 4313.248411579192
11.159999999999954 3234.413394907669
11.189999999999953 2022.2850240168343
11.219999999999953 827.2562280738935
11.249999999999952 -214.33194339588383
11.279999999999951 -994.8918572726965
11.30999999999995 -1445.706126102985
11.33999999999995 -1541.6756683720753
11.36999999999995 -1300.60023028436
11.399999999999949 -777.5614907788411
11.429999999999948 -55.468574411660796
11.459999999999948 766.7991354732321
11.489999999999947 1587.0839441176572
11.519999999999946 2311.9388592269197
11.549999999999946 2866.5945972851864
11.579999999999945 3201.9318020163964
11.609999999999944 3297.9154910728
11.639999999999944 3163.400560709105
11.669999999999943 2832.6536574921092
11.699999999999942 2359.2700407046514
11.729999999999942 1808.418320448906
11.759999999999941 1248.4477272844751
11.78999999999994 742.8714723336147
11.81999999999994 343.61064537623355
11.84999999999994 86.15276539344504
11.879999999999939 -12.99602868268815
11.909999999999938 43.51459145140792
11.939999999999937 235.8813021247173
11.969999999999937 530.9025946917254
11.999999999999936 886.8962297503067
12.029999999999935 1259.118005459715
12.059999999999935 1605.0245376798478
12.089999999999934 1888.8004938388392
12.119999999999933 2084.7127411016063
12.149999999999933 2179.027068067809
12.179999999999932 2170.414127141086
12.209999999999932 2068.9454587195237
12.239999999999931 1893.9265495475227
12.26999999999993 1670.9225244777317
12.29999999999993 1428.382953018717
12.329999999999929 1194.27368199409
12.359999999999928 993.0859943666252
12.389999999999928 843.5126782485793
12.419999999999927 756.9793772520114
12.449999999999926 737.1053722911283
12.479999999999926 780.0591433745149
12.509999999999925 875.6830726402858
12.539999999999925 1009.1835530164278
12.569999999999924 1163.1494175489606
12.599999999999923 1319.6455428364388
12.629999999999923 1462.1510862028579
12.659999999999922 1577.151053566913
12.689999999999921 1655.2504379350962
12.71999999999992 1691.7458714455233
12.74999999999992 1686.652686865396
12.77999999999992 1644.2440498933768
12.809999999999919 1572.2025874700362
12.839999999999918 1480.5103897594438
12.869999999999918 1380.2203398215038
12.899999999999917 1282.2441613100664
12.929999999999916 1196.2754509032284
12.959999999999916 1129.941943215198
12.989999999999915 1088.245346027448
13.019999999999914 1073.313749888188
13.049999999999914 1084.4588943907029
13.079999999999913 1118.499345486338
13.109999999999912 1170.291691243388
13.139999999999912 1233.3971264051243
13.169999999999911 1300.8072940809063
13.19999999999991 1365.6561740942714
13.22999999999991 1421.854647234835
13.25999999999991 1464.5982176278292
13.289999999999909 1490.7141607856602
13.319999999999908 1498.8322449792358
13.349999999999907 1489.3795257275071
13.379999999999907 1464.413536216996
13.409999999999906 1427.3212625984156
13.439999999999905 1382.4197691755987
13.469999999999905 1334.4989453902772
13.499999999999904 1288.3496842929464
13.529999999999903 1248.320238413287
13.559999999999903 1217.9370775478267
13.589999999999902 1199.6193880869812
13.619999999999902 1194.509314792959
13.6499999999999 1202.42544935833
13.6799999999999 1221.9405434497137
13.7099999999999 1250.5710318989206
13.739999999999899 1285.0567024489656
13.769999999999898 1321.7033289578283
13.799999999999898 1356.754380971454
13.829999999999897 1386.7569217685298
13.859999999999896 1408.8886331843246
13.889999999999896 1421.213646420971
13.919999999999895 1422.8454165765843
13.949999999999894 1414.002302063594
13.979999999999894 1395.9521330965013
14.009999999999893 1370.8523724966644
14.039999999999893 1341.5053694166709
14.069999999999892 1311.0552746369772
14.099999999999891 1282.6564918618046
14.12999999999989 1259.1488684627068
14.15999999999989 1242.7733604609436
14.18999999999989 1234.9554060731348
14.219999999999889 1236.1795233670796
14.249999999999888 1245.9676147381506
14.279999999999887 1262.9573822519428
14.309999999999887 1285.0708365328223
14.339999999999886 1309.7547630137433
14.369999999999886 1334.2658124670895
14.399999999999885 1355.9688204408776
14.429999999999884 1372.6159142613835
14.459999999999884 1382.576754131121
14.489999999999883 1384.9950543174807
14.519999999999882 1379.8568073982162
14.549999999999882 1367.965149962232
14.579999999999881 1350.8274831914123
14.60999999999988 1330.4691327506991
14.63999999999988 1309.1956196479262
14.66999999999988 1289.3307494607018
14.699999999999878 1272.9608693556659
14.729999999999878 1261.7136882603616
14.759999999999877 1256.5951474760316
14.789999999999877 1257.9001706111828
14.819999999999876 1265.205535520681
14.849999999999875 1277.4422543286275
14.879999999999875 1293.0368279004945
14.909999999999874 1310.1035941331359
14.939999999999873 1326.6655998923006
14.969999999999873 1340.8781017630486
14.999999999999872 1351.2275288567514
15.029999999999871 1356.6863175798082
15.05999999999987 1356.8085067920729
15.08999999999987 1351.755931938844
15.11999999999987 1342.256285237569
15.149999999999869 1329.499309030862
15.179999999999868 1314.9854087858257
15.209999999999868 1300.3453646213425
15.239999999999867 1287.1527470253382
15.269999999999866 1276.7494736756173
15.299999999999866 1270.1047200369583
15.329999999999865 1267.7218161262294
15.359999999999864 1269.601826900813
15.389999999999864 1275.2659089353674
15.419999999999863 1283.8299465997547
15.449999999999863 1294.122670100775
15.479999999999862 1304.8303170700153
15.509999999999861 1314.6501566126478
15.53999999999986 1322.4362177474975
15.56999999999986 1327.321323422767
15.59999999999986 1328.801160787005
15.629999999999859 1326.7738216555317
15.659999999999858 1321.5327860920584
15.689999999999857 1313.7150968199626
15.719999999999857 1304.2131882996616
15.749999999999856 1294.0614452868135
15.779999999999855 1284.3135563506303
15.809999999999855 1275.9240280814008
15.839999999999854 1269.6460447271768
15.869999999999854 1265.9560955419072
15.899999999999853 1265.0126924985602
15.929999999999852 1266.6552212264296
15.959999999999852 1270.4378829168504
15.989999999999851 1275.69317237697
16.01999999999985 1281.618728433694
16.04999999999985 1287.3751611917976
16.079999999999853 1292.18252005391
16.109999999999854 1295.4057676253765
16.139999999999855 1296.619286803591
16.169999999999856 1295.644975734376
16.199999999999857 1292.558978993568
16.22999999999986 1287.6694235029508
