# Results for "element" with Id # 36919 for search config "initial" at position: x0: -31.3; y0: 0; z0: 13.1578842105
# time PRESSURE
0.03 1377.0146917818115
0.06 3937.7951763356587
0.09 7396.036027537515
0.12 11398.873232481694
0.15 15559.955569625976
0.18 19494.639352519414
0.21 22853.966872513854
0.24 25354.594912246415
0.27 26802.21826468905
0.30000000000000004 27106.49617575011
0.33000000000000007 26286.1400081447
0.3600000000000001 24463.685020659927
0.3900000000000001 21850.493511747532
0.42000000000000015 18723.581579030884
0.4500000000000002 15396.775862227463
0.4800000000000002 12189.314610254001
0.5100000000000002 9395.209666199466
0.5400000000000003 7256.456197569511
0.5700000000000003 5942.575770561355
0.6000000000000003 5538.138576603174
0.6300000000000003 6038.962793933994
0.6600000000000004 7356.7978546292525
0.6900000000000004 9331.520142523153
0.7200000000000004 11749.299768645853
0.7500000000000004 14364.79501177847
0.7800000000000005 16925.22024274273
0.8100000000000005 19194.07904174868
0.8400000000000005 20972.45611937088
0.8700000000000006 22116.021971313778
0.9000000000000006 22546.310993010226
0.9300000000000006 22255.3896192641
0.9600000000000006 21303.66321194614
0.9900000000000007 19811.256770071337
1.0200000000000007 17944.018632225918
1.0500000000000007 15895.717823274374
1.0800000000000007 13868.332299159663
1.1100000000000008 12052.443107129027
1.1400000000000008 10609.64619573632
1.1700000000000008 9658.59038528027
1.2000000000000008 9265.804280987673
1.2300000000000009 9441.928007785402
1.260000000000001 10143.414779017605
1.290000000000001 11279.236503303986
1.320000000000001 12721.701607920952
1.350000000000001 14320.169342728715
1.380000000000001 15916.257104794748
1.410000000000001 17359.079660492196
1.440000000000001 18519.123822578385
1.470000000000001 19299.540136972857
1.500000000000001 19643.90047045401
1.5300000000000011 19539.825761091775
1.5600000000000012 19018.278738148605
1.5900000000000012 18148.738041505378
1.6200000000000012 17030.862838446228
1.6500000000000012 15783.58225568879
1.6800000000000013 14532.777367426555
1.7100000000000013 13398.822925669376
1.7400000000000013 12485.220307614427
1.7700000000000014 11869.388672966563
1.8000000000000014 11596.417940323658
1.8300000000000014 11676.24604338298
1.8600000000000014 12084.369023527253
1.8900000000000015 12765.835487334352
1.9200000000000015 13641.979194552803
1.9500000000000015 14619.112274286252
1.9800000000000015 15598.254255875265
2.0100000000000016 16484.921272395062
2.0400000000000014 17198.039189937896
2.070000000000001 17677.167328940952
2.100000000000001 17887.408368703687
2.130000000000001 17821.628490166306
2.1600000000000006 17499.877805158918
2.1900000000000004 16966.183969791295
2.22 16283.140047483541
2.25 15524.91099240513
2.28 14769.421193374294
2.3099999999999996 14090.53238817627
2.3399999999999994 13550.990278189169
2.369999999999999 13196.802475912287
2.399999999999999 13053.537833097234
2.429999999999999 13124.817039763077
2.4599999999999986 13393.037862104511
2.4899999999999984 13822.150747222584
2.5199999999999982 14362.11167748539
2.549999999999998 14954.494660168579
2.579999999999998 15538.655241064447
2.6099999999999977 16057.815035917452
2.6399999999999975 16464.471477337065
2.6699999999999973 16724.63078257217
2.699999999999997 16820.499894655597
2.729999999999997 16751.440378111038
2.7599999999999967 16533.169849660022
2.7899999999999965 16195.373691720526
2.8199999999999963 15778.042195825506
2.849999999999996 15326.961995298025
2.879999999999996 14888.858839935641
2.9099999999999957 14506.696985869072
2.9399999999999955 14215.60050454998
2.9699999999999953 14039.77320563567
2.999999999999995 13990.672343764933
3.029999999999995 14066.552120602979
3.0599999999999947 14253.347452032654
3.0899999999999945 14526.737508108597
3.1199999999999943 14855.118924672079
3.149999999999994 15203.144944177988
3.179999999999994 15535.44679497091
3.2099999999999937 15820.15819486057
3.2399999999999936 16031.901812827795
3.2699999999999934 16153.968374249695
3.299999999999993 16179.513367826725
3.329999999999993 16111.702405932843
3.3599999999999928 15962.846944054594
3.3899999999999926 15752.669707520476
3.4199999999999924 15505.921318651359
3.449999999999992 15249.621956559571
3.479999999999992 15010.226977674332
3.509999999999992 14811.0063832899
3.5399999999999916 14669.890075727237
3.5699999999999914 14597.970539328477
3.599999999999991 14598.777573691446
3.629999999999991 14668.354056686263
3.659999999999991 14796.080149730373
3.6899999999999906 14966.121014860604
3.7199999999999904 15159.316317712404
3.7499999999999902 15355.296953951576
3.77999999999999 15534.602283680792
3.80999999999999 15680.584525126016
3.8399999999999896 15780.920598947367
3.8699999999999894 15828.600969953859
3.8999999999999893 15822.325081468976
3.929999999999989 15766.297978624105
3.959999999999989 15669.482630562497
3.9899999999999887 15544.415179928292
4.019999999999989 15405.728840468302
4.049999999999989 15268.552475711871
4.079999999999989 15146.954186992778
4.10999999999999 15052.584865917539
4.13999999999999 14993.647436920633
4.16999999999999 14974.276958436887
4.19999999999999 14994.36989655016
4.229999999999991 15049.852448686543
4.259999999999991 15133.334827419658
4.289999999999991 15235.061262279321
4.319999999999991 15344.041353564515
4.349999999999992 15449.237286098774
4.379999999999992 15540.682649174727
4.409999999999992 15610.42360850035
4.439999999999992 15653.19787668092
4.469999999999993 15666.798688660889
4.499999999999993 15652.106359042578
4.529999999999993 15612.805010730417
4.559999999999993 15554.832664868722
4.589999999999994 15485.637591945502
4.619999999999994 15413.328478148322
4.649999999999994 15345.811715499343
4.679999999999994 15290.004061931144
4.709999999999995 15251.19621187128
4.739999999999995 15232.622153608552
4.769999999999995 15235.264939108905
4.799999999999995 15257.90321808722
4.829999999999996 15297.378596228968
4.859999999999996 15349.041672897609
4.889999999999996 15407.32018812023
4.919999999999996 15466.343416012221
4.949999999999997 15520.556004229522
4.979999999999997 15565.259222153361
5.009999999999997 15597.029206847157
5.039999999999997 15613.978052467493
5.069999999999998 15615.842104646406
5.099999999999998 15603.900085902847
5.129999999999998 15580.739989227364
5.159999999999998 15549.909505191714
5.189999999999999 15515.492772729402
5.219999999999999 15481.661395582392
5.249999999999999 15452.247129341302
5.279999999999999 15430.378308494304
5.31 15418.212344949441
5.34 15416.78465139454
5.37 15425.981231334645
5.4 15444.62953923507
5.430000000000001 15470.689906864614
5.460000000000001 15501.521482911094
5.490000000000001 15534.190025478232
5.520000000000001 15565.78369500705
5.550000000000002 15593.704294936151
5.580000000000002 15615.906564840896
5.610000000000002 15631.064610124664
5.640000000000002 15638.654106923103
5.670000000000003 15638.948457907229
5.700000000000003 15632.935097950058
5.730000000000003 15622.165922187176
5.760000000000003 15608.56148662455
5.790000000000004 15594.192145042962
5.820000000000004 15581.06058924505
5.850000000000004 15570.90674369325
5.880000000000004 15565.05280878794
5.910000000000005 15564.301670309787
5.940000000000005 15568.894341024701
5.970000000000005 15578.526294413485
6.000000000000005 15592.416821204555
6.030000000000006 15609.421336262136
6.060000000000006 15628.172046735865
6.090000000000006 15647.229530501612
6.120000000000006 15665.230086595031
6.150000000000007 15681.015215467456
6.180000000000007 15693.731574031823
6.210000000000007 15702.892639110543
6.240000000000007 15708.400020220792
6.270000000000008 15710.524986549564
6.300000000000008 15709.854913985759
6.330000000000008 15707.212754554095
6.360000000000008 15703.559495473832
6.390000000000009 15699.890261519402
6.420000000000009 15697.134820316198
6.450000000000009 15696.07175225669
6.480000000000009 15697.26302442472
6.51000000000001 15701.014863405386
6.54000000000001 15707.366597605536
6.57000000000001 15716.105704601225
6.60000000000001 15726.806036128917
6.6300000000000106 15738.884146184764
6.660000000000011 15751.666806730887
6.690000000000011 15764.462220429305
6.720000000000011 15776.627977751123
6.7500000000000115 15787.629357025759
6.780000000000012 15797.082950901273
6.810000000000012 15804.783407167219
6.840000000000012 15810.710898071797
6.8700000000000125 15815.02102164293
6.900000000000013 15818.017982469006
6.930000000000013 15820.115107640353
6.960000000000013 15821.788947151168
6.9900000000000135 15823.530432790909
7.020000000000014 15825.797107937242
7.050000000000014 15828.971662800304
7.080000000000014 15833.329896510138
7.1100000000000145 15839.020762467617
7.140000000000015 15846.059872975042
7.170000000000015 15854.33579369634
7.200000000000015 15863.628221539999
7.2300000000000155 15873.635249694027
7.260000000000016 15884.006500264111
7.290000000000016 15894.378893531895
7.320000000000016 15904.41172146092
7.3500000000000165 15913.818178592133
7.380000000000017 15922.389573462066
7.410000000000017 15930.010933092308
7.440000000000017 15936.667046650487
7.4700000000000175 15942.438825185074
7.500000000000018 15947.490900002967
7.530000000000018 15952.051827464562
7.560000000000018 15956.389040660868
7.5900000000000185 15960.7811018497
7.620000000000019 15965.490028535707
7.650000000000019 15970.736505788045
7.680000000000019 15976.680399648625
7.7100000000000195 15983.407565147349
7.74000000000002 15990.924297748832
7.77000000000002 15999.160023041968
7.80000000000002 16007.97725374077
7.8300000000000205 16017.188011988192
7.860000000000021 16026.574220921157
7.890000000000021 16035.910191647396
7.920000000000021 16044.98491190011
7.9500000000000215 16053.622548182466
7.980000000000022 16061.698340920599
8.010000000000021 16069.148985432605
8.04000000000002 16075.976528055862
8.07000000000002 16082.24553418703
8.10000000000002 16088.074269629558
8.130000000000019 16093.620647825472
8.160000000000018 16099.064594098087
8.190000000000017 16104.58879260649
8.220000000000017 16110.3596700038
8.250000000000016 16116.510908781918
8.280000000000015 16123.131189289139
8.310000000000015 16130.256437054002
8.340000000000014 16137.867888300301
8.370000000000013 16145.89582052514
8.400000000000013 16154.228524965667
8.430000000000012 16162.725350478195
8.460000000000012 16171.232455265184
8.49000000000001 16179.599254573634
8.52000000000001 16187.694039545135
8.55000000000001 16195.417087034517
8.580000000000009 16202.709953738842
8.610000000000008 16209.56006916628
8.640000000000008 16216.000533778379
8.670000000000007 16222.104986689548
8.700000000000006 16227.978272119453
8.730000000000006 16233.744086215771
8.760000000000005 16239.530935904815
8.790000000000004 16245.458707563987
8.820000000000004 16251.626074302547
8.850000000000003 16258.100854927401
8.880000000000003 16264.913992920847
8.910000000000002 16272.057925138977
8.940000000000001 16279.489030276734
8.97 16287.133923705935
9.0 16294.898428496532
9.03 16302.678682738551
9.059999999999999 16310.373140576814
9.089999999999998 16317.893337161868
9.119999999999997 16325.173129924888
9.149999999999997 16332.175444856259
9.179999999999996 16338.895368074584
9.209999999999996 16345.35936720866
9.239999999999995 16351.621287560376
9.269999999999994 16357.755619974745
9.299999999999994 16363.848783941476
9.329999999999993 16369.989226699274
9.359999999999992 16376.257926566914
9.389999999999992 16382.720084388122
9.419999999999991 16389.418825167737
9.44999999999999 16396.37132157066
9.47999999999999 16403.56823436473
9.50999999999999 16410.97568532067
9.539999999999988 16418.540479118466
9.569999999999988 16426.1969096791
9.599999999999987 16433.875344204596
9.629999999999987 16441.510083080648
9.659999999999986 16449.046146246936
9.689999999999985 16456.444834339607
9.719999999999985 16463.687194844693
9.749999999999984 16470.77554772781
9.779999999999983 16477.73300812391
9.809999999999983 16484.5994727326
9.839999999999982 16491.426128017807
9.869999999999981 16498.269132604073
9.89999999999998 16505.18303298997
9.92999999999998 16512.2150521723
9.95999999999998 16519.40027386511
9.989999999999979 16526.75836412777
10.019999999999978 15296.9262823103
10.049999999999978 12451.540316627466
10.079999999999977 8453.267913123427
10.109999999999976 3869.8335179623346
10.139999999999976 -701.7548351451851
10.169999999999975 -4709.932667136791
10.199999999999974 -7711.671294199149
10.229999999999974 -9417.127384553356
10.259999999999973 -9712.334828003144
10.289999999999973 -8659.353401832832
10.319999999999972 -6475.884425698924
10.349999999999971 -3498.37304598611
10.37999999999997 -134.04967903730036
10.40999999999997 3191.8699313139928
10.43999999999997 6087.519632527871
10.469999999999969 8238.477344249002
10.499999999999968 9439.946546458852
10.529999999999967 9613.926141875098
10.559999999999967 8810.136310683598
10.589999999999966 7191.51508318738
10.619999999999965 5006.930058755765
10.649999999999965 2555.2596819443297
10.679999999999964 145.87082928704658
10.709999999999964 -1939.3368770517714
10.739999999999963 -3477.718769802467
10.769999999999962 -4328.060033937108
10.799999999999962 -4441.205172518087
10.829999999999961 -3858.7996891731245
10.85999999999996 -2701.327836609719
10.88999999999996 -1147.755674943959
10.919999999999959 590.0960348364036
10.949999999999958 2295.0076432273827
10.979999999999958 3770.2791995999787
11.009999999999957 4861.2056514211445
11.039999999999957 5469.941048796936
11.069999999999956 5562.5282179551
11.099999999999955 5167.863579728689
11.129999999999955 4369.366018355293
11.159999999999954 3290.8901161387284
11.189999999999953 2079.0228044699506
11.219999999999953 884.1460859231726
11.249999999999952 -157.3893880803767
11.279999999999951 -937.9746091500501
11.30999999999995 -1388.8683371377401
11.33999999999995 -1484.9509636438147
11.36999999999995 -1244.007748883363
11.399999999999949 -721.1105435344625
11.429999999999948 0.838788092957489
11.459999999999948 822.9690341764045
11.489999999999947 1643.1323388101482
11.519999999999946 2367.8926623245725
11.549999999999946 2922.490577091397
11.579999999999945 3257.8125711253915
11.609999999999944 3353.8227303401736
11.639999999999944 3219.3669727746865
11.669999999999943 2888.6949781530425
11.699999999999942 2415.3795587668683
11.729999999999942 1864.5647635341852
11.759999999999941 1304.5768263283007
11.78999999999994 798.9118523786452
11.81999999999994 399.4822338125698
11.84999999999994 141.77623873433902
11.879999999999939 42.30940988963991
11.909999999999938 98.44795175008075
11.939999999999937 290.4077497614466
11.969999999999937 585.0062230372258
11.999999999999936 940.5767591848158
12.029999999999935 1312.385323022906
12.059999999999935 1657.8917084967588
12.089999999999934 1941.276831275657
12.119999999999933 2136.797981548329
12.149999999999933 2230.7074620689486
12.179999999999932 2221.6606983617835
12.209999999999932 2119.71440791598
12.239999999999931 1944.1616194108265
12.26999999999993 1720.558711476738
12.29999999999993 1477.3506512296199
12.329999999999929 1242.5031230777367
12.359999999999928 1040.5112707099452
12.389999999999928 890.0749037821911
12.419999999999927 802.6286835469361
12.449999999999926 781.8017001562322
12.479999999999926 823.7717398950382
12.509999999999925 918.388965197927
12.539999999999925 1050.8651902887696
12.569999999999924 1203.791933976916
12.599999999999923 1359.2340330273812
12.629999999999923 1500.6680679086344
12.659999999999922 1614.5746634898221
12.689999999999921 1691.553461639693
12.71999999999992 1726.8956695916577
12.74999999999992 1720.6120159619488
12.77999999999992 1676.9725469958976
12.809999999999919 1603.6586832790929
12.839999999999918 1510.6534025816818
12.869999999999918 1409.0125088459736
12.899999999999917 1309.652299402996
12.929999999999916 1222.2721242842729
12.959999999999916 1154.5059825585754
12.989999999999915 1111.3617153317866
13.019999999999914 1094.9728655271522
13.049999999999914 1104.6554396799515
13.079999999999913 1137.2308326231798
13.109999999999912 1187.5569911690784
13.139999999999912 1249.1951359971188
13.169999999999911 1315.1359450392933
13.19999999999991 1378.5118340353658
13.22999999999991 1433.2319427157777
13.25999999999991 1474.4902191984413
13.289999999999909 1499.1128871237056
13.319999999999908 1505.7294076297012
13.349999999999907 1494.767386019931
13.379999999999907 1468.2858179545806
13.409999999999906 1429.673933267434
13.439999999999905 1383.2515741461016
13.469999999999905 1333.8117286264971
13.499999999999904 1286.1484510910543
13.529999999999903 1244.6128584507417
13.559999999999903 1212.7336583933813
13.589999999999902 1192.931498552493
13.619999999999902 1186.3490596855936
13.6499999999999 1192.8047097900303
13.6799999999999 1210.8702733445248
13.7099999999999 1238.0607336767719
13.739999999999899 1271.1142324200705
13.769999999999898 1306.334878816071
13.799999999999898 1339.964668412784
13.829999999999897 1368.549555327626
13.859999999999896 1389.2665065391036
13.889999999999896 1400.1795048252418
13.919999999999895 1400.4023488208754
13.949999999999894 1390.1540925172872
13.979999999999894 1370.703401132113
14.009999999999893 1344.208673701284
14.039999999999893 1313.4731322495802
14.069999999999892 1281.641380198854
14.099999999999891 1251.8678587648367
14.12999999999989 1226.992182164747
14.15999999999989 1209.2547754045133
14.18999999999989 1200.0805040588098
14.219999999999889 1199.9532631209356
14.249999999999888 1208.3939004342
14.279999999999887 1224.038792817812
14.309999999999887 1244.8088166540385
14.339999999999886 1268.1500737785827
14.369999999999886 1291.3190316979592
14.399999999999885 1311.6807310518732
14.429999999999884 1326.9877201791176
14.459999999999884 1335.6101482006088
14.489999999999883 1336.6923719022204
14.519999999999882 1330.221172218094
14.549999999999882 1317.0006724640687
14.579999999999881 1298.5392448204793
14.60999999999988 1276.8629849907038
14.63999999999988 1254.2779218343157
14.66999999999988 1233.1082129513056
14.699999999999878 1215.4404725327981
14.729999999999878 1202.9026030814503
14.759999999999877 1196.5006546108739
14.789999999999877 1196.5296016645586
14.819999999999876 1202.5662064976145
14.849999999999875 1213.5414343963023
14.879999999999875 1227.8818543647394
14.909999999999874 1243.7020638584947
14.939999999999873 1259.0255013543506
14.969999999999873 1272.007789951889
14.999999999999872 1281.1358059347515
15.029999999999871 1285.3825565248974
15.05999999999987 1284.3027003852947
15.08999999999987 1278.0586609884604
15.11999999999987 1267.3785776246896
15.149999999999869 1253.4524639841038
15.179999999999868 1237.7808120768243
15.209999999999868 1221.994329474954
15.239999999999867 1207.6663647069506
15.269999999999866 1196.1386343644836
15.299999999999866 1188.3802100033024
15.329999999999865 1184.894454244399
15.359999999999864 1185.6824787485987
15.389999999999864 1190.2654156831368
15.419999999999863 1197.7591534627893
15.449999999999863 1206.9924277926973
15.479999999999862 1216.6515649421428
15.509999999999861 1225.4341195665984
15.53999999999986 1232.1945921366832
15.56999999999986 1236.066287860084
15.59999999999986 1236.545352178429
15.629999999999859 1233.53025415684
15.659999999999858 1227.314641430645
15.689999999999857 1218.5355232587651
15.719999999999857 1208.085135203509
15.749999999999856 1196.9976713222372
15.779999999999855 1186.3265532838957
15.809999999999855 1177.025840298908
15.839999999999854 1169.848143723889
15.869999999999854 1165.2694273142379
15.899999999999853 1163.4478815715913
15.929999999999852 1164.2225914928115
15.959999999999852 1167.147436910134
15.989999999999851 1171.5546256005273
16.01999999999985 1176.6414247732164
16.04999999999985 1181.567822688924
16.079999999999853 1185.553037868582
16.109999999999854 1187.961055138735
16.139999999999855 1188.36541536508
16.169999999999856 1186.5872008230726
16.199999999999857 1182.7019445981243
16.22999999999986 1177.0174186637792
