# Results for "element" with Id # 15777 for search config "initial" at position: x0: -31.3; y0: 0; z0: 171.052494737
# time PRESSURE
0.03 1376.3782097817711
0.06 3936.03220944469
0.09 7392.83575337083
0.12 11394.123415830152
0.15 15553.76022807388
0.18 19487.335807061045
0.21 22846.129024438844
0.24 25347.001585042584
0.27 26795.769218169382
0.30000000000000004 27102.073116331212
0.33000000000000007 26284.432397036024
0.3600000000000001 24465.01788806151
0.3900000000000001 21854.70213322626
0.42000000000000015 18729.97152106506
0.4500000000000002 15404.185734576971
0.4800000000000002 12196.273367497088
0.5100000000000002 9400.15765757134
0.5400000000000003 7257.986665489263
0.5700000000000003 5939.654444101979
0.6000000000000003 5530.267157113881
0.6300000000000003 6026.268469521356
0.6600000000000004 7340.0424748900095
0.6900000000000004 9312.03275103978
0.7200000000000004 11728.839138921741
0.7500000000000004 14345.353365168468
0.7800000000000005 16908.783872195683
0.8100000000000005 19182.36946322323
0.8400000000000005 20966.68437612909
0.8700000000000006 22116.693760897462
0.9000000000000006 22553.12014912445
0.9300000000000006 22267.224785745115
0.9600000000000006 21318.73443204691
0.9900000000000007 19827.325331110223
1.0200000000000007 17958.694716843056
1.0500000000000007 15906.779246492511
1.0800000000000007 13874.015615232634
1.1100000000000008 12051.666255583968
1.1400000000000008 10602.135007823912
1.1700000000000008 9644.897401498332
1.2000000000000008 9247.221990753404
1.2300000000000009 9420.312173882588
1.260000000000001 10120.942038770872
1.290000000000001 11258.128281383368
1.320000000000001 12703.948920055922
1.350000000000001 14307.293554550364
1.380000000000001 15909.137423819107
1.410000000000001 17357.868885624008
1.440000000000001 18523.26124070347
1.470000000000001 19307.85579911967
1.500000000000001 19654.792620182117
1.5300000000000011 19551.48263290575
1.5600000000000012 19028.913022225814
1.5900000000000012 18156.80003877944
1.6200000000000012 17035.208146194815
1.6500000000000012 15783.57532024921
1.6800000000000013 14528.324086837096
1.7100000000000013 13390.335043581628
1.7400000000000013 12473.523315416161
1.7700000000000014 11855.591196349154
1.8000000000000014 11581.762858888826
1.8300000000000014 11661.963445962272
1.8600000000000014 12071.547190605485
1.8900000000000015 12755.321963125956
1.9200000000000015 13634.317367376707
1.9500000000000015 14614.515062039487
1.9800000000000015 15596.612342529936
2.0100000000000016 16485.841127652297
2.0400000000000014 17200.904250933283
2.070000000000001 17681.214631524363
2.100000000000001 17891.81274679438
2.130000000000001 17825.58630260833
2.1600000000000006 17502.68303680521
2.1900000000000004 16967.290273561557
2.22 16282.20438462741
2.25 15521.815962815377
2.28 14764.274453399972
2.3099999999999996 14083.644084387895
2.3399999999999994 13542.83090062533
2.369999999999999 13187.945823168951
2.399999999999999 13044.595354594134
2.429999999999999 13116.371092340314
2.4599999999999986 13385.581454433044
2.4899999999999984 13816.040838977819
2.5199999999999982 14357.540608147436
2.549999999999998 14951.481883934703
2.579999999999998 15537.059086599436
2.6099999999999977 16057.361120440142
2.6399999999999975 16464.792878461914
2.6699999999999973 16725.313924257574
2.699999999999997 16821.13020176523
2.729999999999997 16751.64264492924
2.7599999999999967 16532.639970287346
2.7899999999999965 16193.899620452314
2.8199999999999963 15775.514311105708
2.849999999999996 15323.373870024036
2.879999999999996 14884.299763109077
2.9099999999999957 14501.338095676565
2.9399999999999955 14209.675933847513
2.9699999999999953 14033.557556441921
2.999999999999995 13984.455675236659
3.029999999999995 14060.613937603168
3.0599999999999947 14247.93121352129
3.0899999999999945 14522.028156253262
3.1199999999999943 14851.22539937903
3.149999999999994 15200.08980722478
3.179999999999994 15533.164709405692
3.2099999999999937 15818.50376432334
3.2399999999999936 16030.66630764082
3.2699999999999934 16152.90355190465
3.299999999999993 16178.359637212976
3.329999999999993 16110.217775750143
3.3599999999999928 15960.833419591067
3.3899999999999926 15749.993571057026
3.4199999999999924 15502.525284935347
3.449999999999992 15245.528005329605
3.479999999999992 15005.529879796515
3.509999999999992 14805.859222905867
3.5399999999999916 14664.483964503506
3.5699999999999914 14592.511193154038
3.599999999999991 14593.461747074898
3.629999999999991 14663.348502708204
3.659999999999991 14791.505194742618
3.6899999999999906 14962.040402445298
3.7199999999999904 15155.733829982553
3.7499999999999902 15352.159670848452
3.77999999999999 15531.809733930364
3.80999999999999 15678.00227653388
3.8399999999999896 15778.396576476885
3.8699999999999894 15825.982625513629
3.8999999999999893 15819.475451656881
3.929999999999989 15763.109121348942
3.959999999999989 15665.885194398694
3.9899999999999887 15540.383300524074
4.019999999999989 15401.280150693856
4.049999999999989 15263.743576249224
4.079999999999989 15141.872248401642
4.10999999999999 15047.336495413496
4.13999999999999 14988.346166920675
4.16999999999999 14969.030737056271
4.19999999999999 14989.269856169069
4.229999999999991 15044.963971168094
4.259999999999991 15128.691955530445
4.289999999999991 15230.66457709671
4.319999999999991 15339.859528656154
4.349999999999992 15445.211937247783
4.379999999999992 15536.735796974379
4.409999999999992 15606.466912115131
4.439999999999992 15649.142536191008
4.469999999999993 15662.564935646924
4.499999999999993 15647.631499275401
4.529999999999993 15608.049327506196
4.559999999999993 15549.78250542608
4.589999999999994 15480.305401351707
4.619999999999994 15407.7499720668
4.649999999999994 15340.040667783624
4.679999999999994 15284.105241489893
4.709999999999995 15245.237409766743
4.739999999999995 15226.666229398603
4.769999999999995 15229.362779131607
4.799999999999995 15252.088262391631
4.829999999999996 15291.66366603519
4.859999999999996 15343.41841459992
4.889999999999996 15401.761053772834
4.919999999999996 15460.80582270827
4.949999999999997 15514.987718430546
4.979999999999997 15559.604552666236
5.009999999999997 15591.235497927235
5.039999999999997 15608.00149697879
5.069999999999998 15609.652160880616
5.099999999999998 15597.482140777513
5.129999999999998 15574.096003770148
5.159999999999998 15543.056626050384
5.189999999999999 15508.460122799159
5.219999999999999 15474.48572879898
5.249999999999999 15444.96782575763
5.279999999999999 15423.032410842361
5.31 15410.830189957427
5.34 15409.386488079695
5.37 15418.575355502957
5.4 15437.21204423238
5.430000000000001 15463.245676338254
5.460000000000001 15494.026375775527
5.490000000000001 15526.613972016563
5.520000000000001 15558.09421081373
5.550000000000002 15585.870149122065
5.580000000000002 15607.901018336726
5.610000000000002 15622.868054833156
5.640000000000002 15630.255818717817
5.670000000000003 15630.346991063063
5.700000000000003 15624.137210349209
5.730000000000003 15613.18454225853
5.760000000000003 15599.413301495259
5.790000000000004 15584.895121557929
5.820000000000004 15571.631174086499
5.850000000000004 15561.357376195752
5.880000000000004 15555.39018525626
5.910000000000005 15554.52555906222
5.940000000000005 15558.997223911496
5.970000000000005 15568.494102721676
6.000000000000005 15582.230556968685
6.030000000000006 15599.059009003877
6.060000000000006 15617.61017950225
6.090000000000006 15636.444995369131
6.120000000000006 15654.202047550725
6.150000000000007 15669.72654376254
6.180000000000007 15682.169218167593
6.210000000000007 15691.047772634458
6.240000000000007 15696.267577245526
6.270000000000008 15698.102683609106
6.300000000000008 15697.142189215405
6.330000000000008 15694.20959262521
6.360000000000008 15690.265109147775
6.390000000000009 15686.301712272314
6.420000000000009 15683.24577705814
6.450000000000009 15681.871790492713
6.480000000000009 15682.737746257704
6.51000000000001 15686.146254259756
6.54000000000001 15692.133686702253
6.57000000000001 15700.485528752715
6.60000000000001 15710.774788584702
6.6300000000000106 15722.418369117926
6.660000000000011 15734.744260440828
6.690000000000011 15747.06242866073
6.720000000000011 15758.732504220388
6.7500000000000115 15769.221906272662
6.780000000000012 15778.149370224595
6.810000000000012 15785.311225115624
6.840000000000012 15790.688586291802
6.8700000000000125 15794.43671985107
6.900000000000013 15796.85891890474
6.930000000000013 15798.36766154571
6.960000000000013 15799.438336850566
6.9900000000000135 15800.560101960424
7.020000000000014 15802.188383712613
7.050000000000014 15804.703805084027
7.080000000000014 15808.380471946943
7.1100000000000145 15813.366371197442
7.140000000000015 15819.677063131066
7.170000000000015 15827.201891000612
7.200000000000015 15835.721810114874
7.2300000000000155 15844.936316904668
7.260000000000016 15854.496469732083
7.290000000000016 15864.040616094855
7.320000000000016 15873.229457416768
7.3500000000000165 15881.777052535499
7.380000000000017 15889.475225664011
7.410000000000017 15896.209287076224
7.440000000000017 15901.964225070556
7.4700000000000175 15906.821121506533
7.500000000000018 15910.944676318608
7.530000000000018 15914.56329830147
7.560000000000018 15917.944083984392
7.5900000000000185 15921.365261993535
7.620000000000019 15925.088803222223
7.650000000000019 15929.335835150787
7.680000000000019 15934.266970639448
7.7100000000000195 15939.969295836954
7.74000000000002 15946.450934459783
7.77000000000002 15953.643601591219
7.80000000000002 15961.412361701123
7.8300000000000205 15969.571481566902
7.860000000000021 15977.904785282071
7.890000000000021 15986.188287292429
7.920000000000021 15994.21263396141
7.9500000000000215 16001.803381986645
7.980000000000022 16008.836975305854
8.010000000000021 16015.251257499382
8.04000000000002 16021.04935016262
8.07000000000002 16026.296810859209
8.10000000000002 16031.112809100707
8.130000000000019 16035.656150445886
8.160000000000018 16040.107716740107
8.190000000000017 16044.651295401905
8.220000000000017 16049.454674840854
8.250000000000016 16054.6530716187
8.280000000000015 16060.33647385046
8.310000000000015 16066.542093162794
8.340000000000014 16073.25244481635
8.370000000000013 16080.39905181658
8.400000000000013 16087.871422858765
8.430000000000012 16095.529969955056
8.460000000000012 16103.221631264525
8.49000000000001 16110.796236470076
8.52000000000001 16118.122270612443
8.55000000000001 16125.100066436698
8.580000000000009 16131.67103595897
8.610000000000008 16137.822507769562
8.640000000000008 16143.587368838578
8.670000000000007 16149.038821156992
8.700000000000006 16154.281127798951
8.730000000000006 16159.437411121049
8.760000000000005 16164.635884509022
8.790000000000004 16169.996196761738
8.820000000000004 16175.6168662236
8.850000000000003 16181.56555991186
8.880000000000003 16187.873084413284
8.910000000000002 16194.531565487732
8.940000000000001 16201.49680710983
8.97 16208.694580459842
9.0 16216.029912916356
9.03 16223.39813410624
9.059999999999999 16230.696587034303
9.089999999999998 16237.8357375221
9.119999999999997 16244.748536151232
9.149999999999997 16251.397113950756
9.179999999999996 16257.775805610965
9.209999999999996 16263.910356434499
9.239999999999995 16269.853753181125
9.269999999999994 16275.679560710589
9.299999999999994 16281.473313538021
9.329999999999993 16287.322571800205
9.359999999999992 16293.307491880858
9.389999999999992 16299.49246417648
9.419999999999991 16305.919692496796
9.44999999999999 16312.605490150434
9.47999999999999 16319.539671801474
9.50999999999999 16326.687757681866
9.539999999999988 16333.995950077178
9.569999999999988 16341.39805058726
9.599999999999987 16348.823626291784
9.629999999999987 16356.206092958284
9.659999999999986 16363.489622107589
9.689999999999985 16370.634562740504
9.719999999999985 16377.62123572323
9.749999999999984 16384.451356899965
9.779999999999983 16391.14725688426
9.809999999999983 16397.748010746032
9.839999999999982 16404.304031700645
9.869999999999981 16410.870823073783
9.89999999999998 16417.502543723735
9.92999999999998 16424.24617966039
9.95999999999998 16431.13645097512
9.989999999999979 16438.192374654744
10.019999999999978 15211.88492244074
10.049999999999978 12373.215914119071
10.079999999999977 8380.894873171796
10.109999999999976 3799.456642915102
10.139999999999976 -775.5036402924254
10.169999999999975 -4791.817818103091
10.199999999999974 -7804.308661306659
10.229999999999974 -9520.32650595483
10.259999999999973 -9823.368897005817
10.289999999999973 -8773.89323315729
10.319999999999972 -6589.1966997532845
10.349999999999971 -3606.397448065662
10.37999999999997 -234.1152251335434
10.40999999999997 3100.7575559118463
10.43999999999997 6004.755350524099
10.469999999999969 8162.174934394671
10.499999999999968 9367.376700286295
10.529999999999967 9541.989247194435
10.559999999999967 8735.808123775738
10.589999999999966 7112.238451203104
10.619999999999965 4920.916129870569
10.649999999999965 2461.673909276917
10.679999999999964 44.881781383754856
10.709999999999964 -2046.6512766943647
10.739999999999963 -3589.5890860324935
10.769999999999962 -4442.325330186851
10.799999999999962 -4555.644106924931
10.829999999999961 -3971.435314829781
10.85999999999996 -2810.670279640461
10.88999999999996 -1252.9495900397424
10.919999999999959 489.2225607985483
10.949999999999958 2197.985896381595
10.979999999999958 3676.1157037785915
11.009999999999957 4768.548523231558
11.039999999999957 5377.2703214403
11.069999999999956 5468.347720337264
11.099999999999955 5070.870967550947
11.129999999999955 4268.590571137087
11.159999999999954 3185.7816910716037
11.189999999999953 1969.4896207527079
11.219999999999953 770.5403615608201
11.249999999999952 -274.33587046014685
11.279999999999951 -1057.2568257237956
11.30999999999995 -1509.3432084978708
11.33999999999995 -1605.4857545874324
11.36999999999995 -1363.6228278721755
11.399999999999949 -839.1005142903695
11.429999999999948 -115.17607181187594
11.459999999999948 708.8913731421569
11.489999999999947 1530.5854136217945
11.519999999999946 2256.170160603002
11.549999999999946 2810.6936576928742
11.579999999999945 3144.9786015452705
11.609999999999944 3239.0571797790362
11.639999999999944 3101.958969207354
11.669999999999943 2768.2021221636646
11.699999999999942 2291.6701904857114
11.729999999999942 1737.8155761828866
11.759999999999941 1175.2296571364966
11.78999999999994 667.5965607045108
11.81999999999994 266.91970581412
11.84999999999994 8.675827851555276
11.879999999999939 -90.72428368750471
11.909999999999938 -34.09143568191927
11.939999999999937 158.57088988306714
11.969999999999937 453.85132920016787
11.999999999999936 809.8775150469487
12.029999999999935 1181.7586391152834
12.059999999999935 1526.8643555545466
12.089999999999934 1809.3593904563038
12.119999999999933 2003.5551990907309
12.149999999999933 2095.815953135262
12.179999999999932 2084.9475536903824
12.209999999999932 1981.1727984763627
12.239999999999931 1803.943168726805
12.26999999999993 1578.945661537536
12.29999999999993 1334.7134113992925
12.329999999999929 1099.2499680101866
12.359999999999928 897.0377651854936
12.389999999999928 746.7197706470293
12.419999999999927 659.6404394427492
12.449999999999926 639.3193247353687
12.479999999999926 681.8219073774095
12.509999999999925 776.8977330601817
12.539999999999925 909.682226349648
12.569999999999924 1062.7227585419694
12.599999999999923 1218.0751344118055
12.629999999999923 1359.2406435000023
12.659999999999922 1472.751932656968
12.689999999999921 1549.2792742336344
12.71999999999992 1584.1921457379447
12.74999999999992 1577.5758487773294
12.77999999999992 1533.7622598414514
12.809999999999919 1460.4749510429644
12.839999999999918 1367.715622976872
12.869999999999918 1266.5342690341326
12.899999999999917 1167.8191009649822
12.929999999999916 1081.2242253582372
12.959999999999916 1014.3282941263201
12.989999999999915 972.0819049979905
13.019999999999914 956.5667913566627
13.049999999999914 967.0588037338717
13.079999999999913 1000.3549029680471
13.109999999999912 1051.3061769661513
13.139999999999912 1113.4837462567418
13.169999999999911 1179.900637200323
13.19999999999991 1243.7189911127614
13.22999999999991 1298.8801921208403
13.25999999999991 1340.6085205235229
13.289999999999909 1365.7547316868004
13.319999999999908 1372.9644878691136
13.349999999999907 1362.672451491057
13.379999999999907 1336.9349317506678
13.409999999999906 1299.1288778720852
13.439999999999905 1253.5537580518464
13.469999999999905 1204.9760800693184
13.499999999999904 1158.1614131549486
13.529999999999903 1117.434807874224
13.559999999999903 1086.3062208311267
13.589999999999902 1067.1873702917414
13.619999999999902 1061.2214942541998
13.6499999999999 1068.2352764586326
13.6799999999999 1086.815290948416
13.7099999999999 1114.4952889119959
13.739999999999899 1148.0334642784908
13.769999999999898 1183.7530977870638
13.799999999999898 1217.9126494495463
13.829999999999897 1247.069607294975
13.859999999999896 1268.4070534373145
13.889999999999896 1279.9892109304767
13.919999999999895 1280.9251057383674
13.949999999999894 1271.4252958342968
13.979999999999894 1252.7479723284953
14.009999999999893 1227.0404666290383
14.039999999999893 1197.0949742211171
14.069999999999892 1166.048526981192
14.099999999999891 1137.0515101360938
14.12999999999989 1112.9422542753346
14.15999999999989 1095.9632714916054
14.18999999999989 1087.54529987654
14.219999999999889 1088.181511591885
14.249999999999888 1097.404784452783
14.279999999999887 1113.864556491556
14.309999999999887 1135.4926539445719
14.339999999999886 1159.7412991547105
14.369999999999886 1183.8693182411073
14.399999999999885 1205.2418417879567
14.429999999999884 1221.6092598616715
14.459999999999884 1231.33855671273
14.489999999999883 1233.5705011205573
14.519999999999882 1228.2873397707874
14.549999999999882 1216.2879842751247
14.579999999999881 1199.0767815527563
14.60999999999988 1178.6774351903741
14.63999999999988 1157.3945583970603
14.66999999999988 1137.5514175326084
14.699999999999878 1121.234833507995
14.729999999999878 1110.0744987956455
14.759999999999877 1105.0791637697732
14.789999999999877 1106.5466082411199
14.819999999999876 1114.05600482132
14.849999999999875 1126.5399046344223
14.879999999999875 1142.4249781072913
14.909999999999874 1159.8245551420216
14.939999999999873 1176.7595991133765
14.969999999999873 1191.3823236952353
14.999999999999872 1202.1756190916947
15.029999999999871 1208.108026163726
15.05999999999987 1208.7298693622704
15.08999999999987 1204.1996409337733
15.11999999999987 1195.2421817623003
15.149999999999869 1183.0452927083138
15.179999999999868 1169.1090777677655
15.209999999999868 1155.0650400285135
15.239999999999867 1142.4870631641925
15.269999999999866 1132.7172581517618
15.299999999999866 1126.725346132602
15.329999999999865 1125.0151807208504
15.359999999999864 1127.5878507757259
15.389999999999864 1133.9628834248376
15.419999999999863 1143.252226672542
15.449999999999863 1154.2794534484135
15.479999999999862 1165.7253700537967
15.509999999999861 1176.282430540833
15.53999999999986 1184.800370030792
15.56999999999986 1190.4086690980917
15.59999999999986 1192.6001004612835
15.629999999999859 1191.2695220385187
15.659999999999858 1186.7072005466703
15.689999999999857 1179.547084822826
15.719999999999857 1170.6794682343727
15.749999999999856 1161.1385317607294
15.779999999999855 1151.9797375152061
15.809999999999855 1144.1612469213726
15.839999999999854 1138.440536417679
15.869999999999854 1135.2979346427448
15.899999999999853 1134.8950601753286
15.929999999999852 1137.0740493023588
15.959999999999852 1141.3903853227935
15.989999999999851 1147.1768880484863
16.01999999999985 1153.6314198501698
16.04999999999985 1159.9158936673505
16.079999999999853 1165.2534137823059
16.109999999999854 1169.0127976461351
16.139999999999855 1170.7719826631605
16.169999999999856 1170.3549296396798
16.199999999999857 1167.8384521593123
16.22999999999986 1163.529486140911
