# Results for "element" with Id # 33864 for search config "initial" at position: x0: -31.3; y0: 0; z0: 131.578842105
# time PRESSURE
0.03 1376.8102581349658
0.06 3937.2634681503587
0.09 7395.147445225504
0.12 11397.69357710411
0.15 15558.644671315798
0.18 19493.44740125221
0.21 22853.222806180213
0.24 25354.677928208625
0.27 26803.50629928576
0.30000000000000004 27109.292790015803
0.33000000000000007 26290.59233641046
0.3600000000000001 24469.712075852978
0.3900000000000001 21857.74615339055
0.42000000000000015 18731.4505076291
0.4500000000000002 15404.451981941027
0.4800000000000002 12195.893400891318
0.5100000000000002 9399.82073860818
0.5400000000000003 7258.394341840154
0.5700000000000003 5941.411989161859
0.6000000000000003 5533.794337818039
0.6300000000000003 6031.740146008113
0.6600000000000004 7347.363917058153
0.6900000000000004 9320.849397239816
0.7200000000000004 11738.57861413675
0.7500000000000004 14355.295786817269
0.7800000000000005 16918.154393548823
0.8100000000000005 19190.44363321898
0.8400000000000005 20972.892864097204
0.8700000000000006 22120.710326468758
0.9000000000000006 22554.91653273023
0.9300000000000006 22267.08116882846
0.9600000000000006 21317.201560665817
0.9900000000000007 19825.144434215526
1.0200000000000007 17956.689326362106
1.0500000000000007 15905.737787108706
1.0800000000000007 13874.584093475587
1.1100000000000008 12054.26674895106
1.1400000000000008 10606.919736140375
1.1700000000000008 9651.74138653936
1.2000000000000008 9255.751999566115
1.2300000000000009 9429.964826437712
1.260000000000001 10131.042050012858
1.290000000000001 11267.975679857553
1.320000000000001 12712.904559844854
1.350000000000001 14314.852720031366
1.380000000000001 15914.983246104402
1.410000000000001 17361.900146496
1.440000000000001 18525.59256758465
1.470000000000001 19308.79203932268
1.500000000000001 19654.781971305863
1.5300000000000011 19551.055970462763
1.5600000000000012 19028.617212320754
1.5900000000000012 18157.134343278423
1.6200000000000012 17036.570421791173
1.6500000000000012 15786.223777438743
1.6800000000000013 14532.357685798028
1.7100000000000013 13395.69327392943
1.7400000000000013 12480.003750812339
1.7700000000000014 11862.881276969867
1.8000000000000014 11589.481538438225
1.8300000000000014 11669.707370809883
1.8600000000000014 12078.936562500206
1.8900000000000015 12762.040995622754
1.9200000000000015 13640.145416492654
1.9500000000000015 14619.345297142496
1.9800000000000015 15600.45627080427
2.0100000000000016 16488.818885889792
2.0400000000000014 17203.222454481507
2.070000000000001 17683.135333397004
2.100000000000001 17893.617970107673
2.130000000000001 17827.543346994098
2.1600000000000006 17505.01498914418
2.1900000000000004 16970.155378365664
2.22 16285.685982815701
2.25 15525.922934402552
2.28 14768.950750595044
2.3099999999999996 14088.784509870502
2.3399999999999994 13548.299997362707
2.369999999999999 13193.596656593034
2.399999999999999 13050.285787066838
2.429999999999999 13121.975877020075
2.4599999999999986 13390.99971943916
2.4899999999999984 13821.19921102948
2.5199999999999982 14362.39312288325
2.549999999999998 14956.0080327508
2.579999999999998 15541.261136531344
2.6099999999999977 16061.261682169561
2.6399999999999975 16468.433011940855
2.6699999999999973 16728.751593425095
2.699999999999997 16824.438503340953
2.729999999999997 16754.90694542457
2.7599999999999967 16535.953277424127
2.7899999999999965 16197.355960295177
2.8199999999999963 15779.200269996174
2.849999999999996 15327.359133748801
2.879999999999996 14888.62809155813
2.9099999999999957 14506.02023639771
2.9399999999999955 14214.686014099889
2.9699999999999953 14038.834006529081
2.999999999999995 13989.907013655698
3.029999999999995 14066.128987074799
3.0599999999999947 14253.392471191904
3.0899999999999945 14527.326373666898
3.1199999999999943 14856.273340312198
3.149999999999994 15204.833156678435
3.179999999999994 15537.58848978693
3.2099999999999937 15822.63345639212
3.2399999999999936 16034.563607528808
3.2699999999999934 16156.657542512541
3.299999999999993 16182.074798128038
3.329999999999993 16114.000598976101
3.3599999999999928 15964.779503724094
3.3899999999999926 15754.176910271402
3.4199999999999924 15506.990924617603
3.449999999999992 15250.288692495667
3.479999999999992 15010.566809428583
3.509999999999992 14811.126441433602
3.5399999999999916 14669.915536393632
3.5699999999999914 14598.03006183777
3.599999999999991 14598.989154370342
3.629999999999991 14668.812828581296
3.659999999999991 14796.849352992067
3.6899999999999906 14967.227053644103
3.7199999999999904 15160.748090674375
3.7499999999999902 15357.009260081402
3.77999999999999 15536.522718207543
3.80999999999999 15682.622815112767
3.8399999999999896 15782.979272877481
3.8699999999999894 15830.586150566482
3.8999999999999893 15824.156127462067
3.929999999999989 15767.91515811999
3.959999999999989 15670.852113821922
3.9899999999999887 15545.530976633905
4.019999999999989 15406.611669636028
4.049999999999989 15269.245895167796
4.079999999999989 15147.518535982965
4.10999999999999 15053.08982173235
4.13999999999999 14994.164082219751
4.16999999999999 14974.87021336503
4.19999999999999 14995.09204849815
4.229999999999991 15050.738318700041
4.259999999999991 15134.399139222161
4.289999999999991 15236.298171252494
4.319999999999991 15345.426115022898
4.349999999999992 15450.729817665846
4.379999999999992 15542.232483142647
4.409999999999992 15611.975706465113
4.439999999999992 15654.698613353466
4.469999999999993 15668.201409279493
4.499999999999993 15653.375928091438
4.529999999999993 15613.920995302216
4.559999999999993 15555.790814194426
4.589999999999994 15486.449439109794
4.619999999999994 15414.019271615134
4.649999999999994 15346.41702836447
4.679999999999994 15290.565320561613
4.709999999999995 15251.755775068661
4.739999999999995 15233.218484367599
4.769999999999995 15235.928406577099
4.799999999999995 15258.652895255835
4.829999999999996 15298.220507929693
4.859999999999996 15349.968719453604
4.889999999999996 15408.313645661885
4.919999999999996 15467.375730628066
4.949999999999997 15521.594199909016
4.979999999999997 15566.268800796253
5.009999999999997 15597.978228411508
5.039999999999997 15614.840679658217
5.069999999999998 15616.601206331226
5.099999999999998 15604.548740473358
5.129999999999998 15581.281716535645
5.159999999999998 15550.357216496199
5.189999999999999 15515.866562585885
5.219999999999999 15481.985706015976
5.249999999999999 15452.547465988158
5.279999999999999 15430.67811690785
5.31 15418.530424803594
5.34 15417.133195899318
5.37 15426.364860639398
5.4 15445.045314443249
5.430000000000001 15471.127940842069
5.460000000000001 15501.966373281099
5.490000000000001 15534.622831896335
5.520000000000001 15566.184091108327
5.550000000000002 15594.052880810943
5.580000000000002 15616.186936534441
5.610000000000002 15631.265029190623
5.640000000000002 15638.768611153391
5.670000000000003 15638.976956877912
5.700000000000003 15632.882515464506
5.730000000000003 15622.040874312852
5.760000000000003 15608.37473022919
5.790000000000004 15593.955020345913
5.820000000000004 15580.783162411906
5.850000000000004 15570.596160192197
5.880000000000004 15564.712201306977
5.910000000000005 15563.929419237056
5.940000000000005 15568.48394539067
5.970000000000005 15578.06700047065
6.000000000000005 15591.8947864574
6.030000000000006 15608.82096734659
6.060000000000006 15627.476889726175
6.090000000000006 15646.423448880618
6.120000000000006 15664.298494974919
6.150000000000007 15679.9458995309
6.180000000000007 15692.51467757038
6.210000000000007 15701.520737213816
6.240000000000007 15706.86769013563
6.270000000000008 15708.828114467331
6.300000000000008 15707.990112997999
6.330000000000008 15705.176818086435
6.360000000000008 15701.348702290736
6.390000000000009 15697.499484975686
6.420000000000009 15694.556628275912
6.450000000000009 15693.295947878527
6.480000000000009 15694.276746417483
6.51000000000001 15697.802757797135
6.54000000000001 15703.911264379618
6.57000000000001 15712.388525736647
6.60000000000001 15722.807819072736
6.6300000000000106 15734.585845738084
6.660000000000011 15747.05009083238
6.690000000000011 15759.509736003918
6.720000000000011 15771.323375648542
6.7500000000000115 15781.957340606248
6.780000000000012 15791.029361230172
6.810000000000012 15798.335215117067
6.840000000000012 15803.85572028915
6.8700000000000125 15807.74605765364
6.900000000000013 15810.30961329561
6.930000000000013 15811.958979020998
6.960000000000013 15813.169791950673
6.9900000000000135 15814.431637806789
7.020000000000014 15816.200509148814
7.050000000000014 15818.857739069219
7.080000000000014 15822.678009547695
7.1100000000000145 15827.809572129978
7.140000000000015 15834.268003201149
7.170000000000015 15841.942308977554
7.200000000000015 15850.612888321592
7.2300000000000155 15859.97864616341
7.260000000000016 15869.689971474112
7.290000000000016 15879.384544586203
7.320000000000016 15888.722459340133
7.3500000000000165 15897.417306783393
7.380000000000017 15905.260659951937
7.410000000000017 15912.137735075547
7.440000000000017 15918.033560577911
7.4700000000000175 15923.029261393252
7.500000000000018 15927.289588214671
7.530000000000018 15931.043055436254
7.560000000000018 15934.55686823031
7.5900000000000185 15938.109359087712
7.620000000000019 15941.962539269616
7.650000000000019 15946.337464070963
7.680000000000019 15951.394617147438
7.7100000000000195 15957.220889921762
7.74000000000002 15963.824142933623
7.77000000000002 15971.135723490243
7.80000000000002 15979.02026141516
7.8300000000000205 15987.29160311667
7.860000000000021 15995.73324816044
7.890000000000021 16004.1209684531
7.920000000000021 16012.245202060729
7.9500000000000215 16019.931405834795
7.980000000000022 16027.05604093216
8.010000000000021 16033.557018791495
8.04000000000002 16039.437701536539
8.07000000000002 16044.764001813215
8.10000000000002 16049.65546343771
8.130000000000019 16054.271192465716
8.160000000000018 16058.792278748391
8.190000000000017 16063.402652409617
8.220000000000017 16068.270185824984
8.250000000000016 16073.530187103364
8.280000000000015 16079.272800925643
8.310000000000015 16085.535418541038
8.340000000000014 16092.300757825493
8.370000000000013 16099.500554334265
8.400000000000013 16107.024540417424
8.430000000000012 16114.733355101374
8.460000000000012 16122.474223673917
8.49000000000001 16130.097321037485
8.52000000000001 16137.471493958705
8.55000000000001 16144.497464789063
8.580000000000009 16151.117140868673
8.610000000000008 16157.318327651716
8.640000000000008 16163.134312317854
8.670000000000007 16168.63871920886
8.700000000000006 16173.936320413888
8.730000000000006 16179.150743613405
8.760000000000005 16184.410588113284
8.790000000000004 16189.83589668313
8.820000000000004 16195.525491356793
8.850000000000003 16201.54723172029
8.880000000000003 16207.932015404962
8.910000000000002 16214.67200264118
8.940000000000001 16221.723085059919
8.97 16229.011189758548
9.0 16236.441438336331
9.03 16243.909301280433
9.059999999999999 16251.312277738505
9.089999999999998 16258.560967931284
9.119999999999997 16265.588411872955
9.149999999999997 16272.356683871814
9.179999999999996 16278.859953591684
9.209999999999996 16285.12376096257
9.239999999999995 16291.200898108542
9.269999999999994 16297.164720087934
9.299999999999994 16303.100575394861
9.329999999999993 16309.095854502237
9.359999999999992 16315.230520674457
9.389999999999992 16321.568739275817
9.419999999999991 16328.152493307922
9.44999999999999 16334.997907034154
9.47999999999999 16342.094680839466
9.50999999999999 16349.408240127515
9.539999999999988 16356.884749125695
9.569999999999988 16364.457864153683
9.599999999999987 16372.057104604724
9.629999999999987 16379.6158388938
9.659999999999986 16387.078123491137
9.689999999999985 16394.40416460022
9.719999999999985 16401.57409434944
9.749999999999984 16408.589478369322
9.779999999999983 16415.47268731144
9.809999999999983 16422.262904726857
9.839999999999982 16429.010597374643
9.869999999999981 16435.77120932898
9.89999999999998 16442.59870902576
9.92999999999998 16449.539864728384
9.95999999999998 16456.62927111777
9.989999999999979 16463.88597811327
10.019999999999978 15236.40557475001
10.049999999999978 12395.220467167288
10.079999999999977 8400.219658102214
10.109999999999976 3817.0260148051802
10.139999999999976 -758.0730936894693
10.169999999999975 -4772.767921947543
10.199999999999974 -7782.2698611196665
10.229999999999974 -9494.681511840465
10.259999999999973 -9794.371977020532
10.289999999999973 -8742.545352957026
10.319999999999972 -6556.945093571417
10.349999999999971 -3574.763782267951
10.37999999999997 -204.35594367216197
10.40999999999997 3127.883097025133
10.43999999999997 6029.075856574376
10.469999999999969 8184.064283139353
10.499999999999968 9387.613385196524
10.529999999999967 9561.567713787077
10.559999999999967 8755.749436485145
10.589999999999966 7133.43499984446
10.619999999999965 4944.028320946311
10.649999999999965 2487.079741244242
10.679999999999964 72.67058585540678
10.709999999999964 -2016.653466126647
10.739999999999963 -3557.773584391027
10.769999999999962 -4409.242099399031
10.799999999999962 -4521.934098694856
10.829999999999961 -3937.756654524775
10.85999999999996 -2777.621910263777
10.88999999999996 -1221.000053096996
10.919999999999959 519.7929081831901
10.949999999999958 2227.1198103427796
10.979999999999958 3703.9843063185112
11.009999999999957 4795.524556184568
11.039999999999957 5403.872780438663
11.069999999999956 5495.166655849571
11.099999999999955 5098.484515681594
11.129999999999955 4297.486171007882
11.159999999999954 3216.293898555283
11.189999999999953 2001.7619617972052
11.219999999999953 804.5151931993692
11.249999999999952 -238.89903339778155
11.279999999999951 -1020.7391245307938
11.30999999999995 -1472.2071546406412
11.33999999999995 -1568.2082903662956
11.36999999999995 -1326.6303815804426
11.399999999999949 -802.7144549121246
11.429999999999948 -79.5762730091163
11.459999999999948 743.6814906216093
11.489999999999947 1564.691683228024
11.519999999999946 2289.8404168502425
11.549999999999946 2844.2553330427027
11.579999999999945 3178.7881550668217
11.609999999999944 3273.4486773798253
11.639999999999944 3137.199421463603
11.669999999999943 2804.458726791255
11.699999999999942 2328.993969543393
11.729999999999942 1776.1413458529776
11.759999999999941 1214.391373943504
11.78999999999994 707.3552737933734
11.81999999999994 306.9993261798714
11.84999999999994 48.80126221507004
11.879999999999939 -50.79204740575621
11.909999999999938 5.47199338994578
11.939999999999937 197.6699768072718
11.969999999999937 492.47489747436083
11.999999999999936 848.0914505401624
12.029999999999935 1219.6888097913304
12.059999999999935 1564.673087720192
12.089999999999934 1847.2190559702149
12.119999999999933 2041.6227210457307
12.149999999999933 2134.2112643927026
12.179999999999932 2123.738753578977
12.209999999999932 2020.3692620657164
12.239999999999931 1843.4975837184907
12.26999999999993 1618.7633008166904
12.29999999999993 1374.667132706058
12.329999999999929 1139.1982083787234
12.359999999999928 936.8427791615334
12.389999999999928 786.263578407814
12.419999999999927 698.8370700879436
12.449999999999926 678.1218849786144
12.479999999999926 720.224017190081
12.509999999999925 814.929265066627
12.539999999999925 947.4007678233615
12.569999999999924 1100.2021246338961
12.599999999999923 1255.3927864321183
12.629999999999923 1396.4657048665708
12.659999999999922 1509.9354114670225
12.689999999999921 1586.4472416298156
12.71999999999992 1621.3427564956112
12.74999999999992 1614.6802059204786
12.77999999999992 1570.7685831739993
12.809999999999919 1497.315265743407
12.839999999999918 1404.3138141227291
12.869999999999918 1302.8145696503416
12.899999999999917 1203.7139831351956
12.929999999999916 1116.6804963647442
12.959999999999916 1049.3108515886372
12.989999999999915 1006.5746054058545
13.019999999999914 990.5707022392787
13.049999999999914 1000.5884625688956
13.079999999999913 1033.4329685040914
13.109999999999912 1083.957364651452
13.139999999999912 1145.7288946086069
13.169999999999911 1211.7523124610104
13.19999999999991 1275.178908194938
13.22999999999991 1329.938277409829
13.25999999999991 1371.243622565194
13.289999999999909 1395.9367781011492
13.319999999999908 1402.6574264147432
13.349999999999907 1391.8376026196975
13.379999999999907 1365.5342749334
13.409999999999906 1327.1285223089035
13.439999999999905 1280.9271105815146
13.469999999999905 1231.7061305871823
13.499999999999904 1184.2412998515779
13.529999999999903 1142.8669643162666
13.559999999999903 1111.0998652946064
13.589999999999902 1091.3549855590497
13.619999999999902 1084.7760760168328
13.6499999999999 1091.1877978420985
13.6799999999999 1109.172937220842
13.7099999999999 1136.2606202694126
13.739999999999899 1169.2038823855266
13.769999999999898 1204.3213413114363
13.799999999999898 1237.8675897140315
13.829999999999897 1266.3978749056241
13.859999999999896 1287.0953888452455
13.889999999999896 1298.0268757058927
13.919999999999895 1298.306014284798
13.949999999999894 1288.1494389351515
13.979999999999894 1268.8223386904099
14.009999999999893 1242.4784574104856
14.039999999999893 1211.9155762868704
14.069999999999892 1180.2758192904282
14.099999999999891 1150.7138418195138
14.12999999999989 1126.0706029630028
14.15999999999989 1108.5897727446302
14.18999999999989 1099.700440633675
14.219999999999889 1099.892025851578
14.249999999999888 1108.6945948038397
14.279999999999887 1124.756166423552
14.309999999999887 1146.0077334144194
14.339999999999886 1169.900942674753
14.369999999999886 1193.6934445371082
14.399999999999885 1214.7486284892748
14.429999999999884 1230.8154281974078
14.459999999999884 1240.2600309531676
14.489999999999883 1242.2227870460733
14.519999999999882 1236.6856844880574
14.549999999999882 1224.446978477774
14.579999999999881 1207.0096983649657
14.60999999999988 1186.3960937797033
14.63999999999988 1164.9096854451955
14.66999999999988 1144.872702435954
14.699999999999878 1128.370366533257
14.729999999999878 1117.0298442980632
14.759999999999877 1111.8568644881457
14.789999999999877 1113.145937421892
14.819999999999876 1120.4731664321698
14.849999999999875 1132.768590347868
14.879999999999875 1148.457025358527
14.909999999999874 1165.6503176525832
14.939999999999873 1182.3684071467655
14.969999999999873 1196.763520914938
14.999999999999872 1207.319075480851
15.029999999999871 1213.0041532590665
15.05999999999987 1213.3693322582642
15.08999999999987 1208.5728964558202
15.11999999999987 1199.339411621601
15.149999999999869 1186.8564098536935
15.179999999999868 1172.623576819357
15.209999999999868 1158.2722331302607
15.239999999999867 1145.3771340100996
15.269999999999866 1135.2814317564423
15.299999999999866 1128.955252698597
15.329999999999865 1126.9020701696204
15.359999999999864 1129.1222950575677
15.389999999999864 1135.1354600798102
15.419999999999863 1144.054530169665
15.449999999999863 1154.7049317548328
15.479999999999862 1165.7697489839934
15.509999999999861 1175.9434882821615
15.53999999999986 1184.0774617441657
15.56999999999986 1189.3021855391296
15.59999999999986 1191.1112185195561
15.629999999999859 1189.4000718887282
15.659999999999858 1184.4596744313137
15.689999999999857 1176.9248842761383
15.719999999999857 1167.6868867331414
15.749999999999856 1157.7797263642174
15.779999999999855 1148.257889747021
15.809999999999855 1140.0780203606387
15.839999999999854 1133.9959532513376
15.869999999999854 1130.4905005158457
15.899999999999853 1129.7216382190702
15.929999999999852 1131.5302477422083
15.959999999999852 1135.471587301345
15.989999999999851 1140.8788149487011
16.01999999999985 1146.9505358980593
16.04999999999985 1152.84956660962
16.079999999999853 1157.799642635822
16.109999999999854 1161.1702827927243
16.139999999999855 1162.5403687750156
16.169999999999856 1161.7355380470187
16.199999999999857 1158.834572160315
16.22999999999986 1154.1467256797396
