# Results for "element" with Id # 33837 for search config "initial" at position: x0: -31.3; y0: 0; z0: 144.736726316
# time PRESSURE
0.03 1376.719719348397
0.06 3937.007812134327
0.09 7394.671631855768
0.12 11396.964587498458
0.15 15557.65499225347
0.18 19492.21967584657
0.21 22851.81371330357
0.24 25353.178026775753
0.27 26802.03277123693
0.30000000000000004 27107.97391235092
0.33000000000000007 26289.545341579716
0.3600000000000001 24469.01901142041
0.3900000000000001 21857.43377676078
0.42000000000000015 18731.47976638181
0.4500000000000002 15404.720294628602
0.4800000000000002 12196.249567797218
0.5100000000000002 9400.089188632015
0.5400000000000003 7258.4035395269575
0.5700000000000003 5941.021545742597
0.6000000000000003 5532.916510579287
0.6300000000000003 6030.353107856316
0.6600000000000004 7345.515841095292
0.6900000000000004 9318.653628571767
0.7200000000000004 11736.200802249436
0.7500000000000004 14352.934081163881
0.7800000000000005 16916.01437670027
0.8100000000000005 19188.710528825806
0.8400000000000005 20971.7045899379
0.8700000000000006 22120.135679051407
0.9000000000000006 22554.942616224744
0.9300000000000006 22267.612887964133
0.9600000000000006 21318.073934232074
0.9900000000000007 19826.145661245104
1.0200000000000007 17957.5907742102
1.0500000000000007 15906.325688020319
1.0800000000000007 13874.687936028582
1.1100000000000008 12053.780344751489
1.1400000000000008 10605.812539439637
1.1700000000000008 9650.05934519018
1.2000000000000008 9253.60870691838
1.2300000000000009 9427.524868634624
1.260000000000001 10128.49900912265
1.290000000000001 11265.527893717763
1.320000000000001 12710.731472013396
1.350000000000001 14313.09468040885
1.380000000000001 15913.726947163526
1.410000000000001 17361.171127734782
1.440000000000001 18525.35528023923
1.470000000000001 19308.957014566815
1.500000000000001 19655.218800759238
1.5300000000000011 19551.61018754333
1.5600000000000012 19029.129071870382
1.5900000000000012 18157.45687927572
1.6200000000000012 17036.585148513743
1.6500000000000012 15785.85228486337
1.6800000000000013 14531.568106367913
1.7100000000000013 13394.501252501372
1.7400000000000013 12478.468169756856
1.7700000000000014 11861.095522651158
1.8000000000000014 11587.561508754237
1.8300000000000014 11667.777655280925
1.8600000000000014 12077.116268192747
1.8900000000000015 12760.430861662933
1.9200000000000015 13638.817472773564
1.9500000000000015 14618.33618972272
1.9800000000000015 15599.76499219228
2.0100000000000016 16488.409071070037
2.0400000000000014 17203.028820584335
2.070000000000001 17683.073285656432
2.100000000000001 17893.594943176347
2.130000000000001 17827.47028490707
2.1600000000000006 17504.816439217284
2.1900000000000004 16969.77689688307
2.22 16285.09818574645
2.25 15525.122036301624
2.28 14767.955927024996
2.3099999999999996 14087.632868091017
2.3399999999999994 13547.04017587726
2.369999999999999 13192.282093178577
2.399999999999999 13048.968591659255
2.429999999999999 13120.701944667047
2.4599999999999986 13389.805407995373
2.4899999999999984 13820.109680633066
2.5199999999999982 14361.42203964711
2.549999999999998 14955.15827810736
2.579999999999998 15540.526134468622
2.6099999999999977 16060.626991631643
2.6399999999999975 16467.877944816806
2.6699999999999973 16728.250766998786
2.699999999999997 16823.963374189098
2.729999999999997 16754.427428526884
2.7599999999999967 16535.439595333828
2.7899999999999965 16196.78070489596
2.8199999999999963 15778.540685375838
2.849999999999996 15326.599406020627
2.879999999999996 14887.761310073154
2.9099999999999957 14505.049661762323
2.9399999999999955 14213.625328882177
2.9699999999999953 14037.706339779003
2.999999999999995 13988.74270745771
3.029999999999995 14064.96231719647
3.0599999999999947 14252.257676844729
3.0899999999999945 14526.253604362357
3.1199999999999943 14855.285015815869
3.149999999999994 15203.94128572478
3.179999999999994 15536.793339034406
3.2099999999999937 15821.923745365919
3.2399999999999936 16033.918167465954
3.2699999999999934 16156.048169391313
3.299999999999993 16181.469881786916
3.329999999999993 16113.368993327389
3.3599999999999928 15964.094158995149
3.3899999999999926 15753.4177623223
3.4199999999999924 15506.1467842918
3.449999999999992 15249.357979473003
3.479999999999992 15009.557115926138
3.509999999999992 14810.053086571086
3.5399999999999916 14668.79935271979
3.5699999999999914 14596.894721727835
3.599999999999991 14597.858383859722
3.629999999999991 14667.707814057438
3.659999999999991 14795.786586233693
3.6899999999999906 14966.216853303702
3.7199999999999904 15159.793869709389
3.7499999999999902 15356.107567111485
3.77999999999999 15535.664013180245
3.80999999999999 15681.792839319452
3.8399999999999896 15782.160842939067
3.8699999999999894 15829.761162933319
3.8999999999999893 15823.307534142246
3.929999999999989 15767.02871977528
3.959999999999989 15669.917751885829
3.9899999999999887 15544.543594182178
4.019999999999989 15405.571395664325
4.049999999999989 15268.157770559113
4.079999999999989 15146.391685150738
4.10999999999999 15051.93623090322
4.13999999999999 14992.997139284109
4.16999999999999 14973.70317791568
4.19999999999999 14993.936617058278
4.229999999999991 15049.603415016074
4.259999999999991 15133.290090653607
4.289999999999991 15235.216292108602
4.319999999999991 15344.368758908522
4.349999999999992 15449.690850822628
4.379999999999992 15541.20311270492
4.409999999999992 15610.945564236665
4.439999999999992 15653.65696907886
4.469999999999993 15667.138362290452
4.499999999999993 15652.283443837738
4.529999999999993 15612.793697639567
4.559999999999993 15554.626421525529
4.589999999999994 15485.248838369069
4.619999999999994 15412.78622812585
4.649999999999994 15345.157589517255
4.679999999999994 15289.286989141981
4.709999999999995 15250.466560316903
4.739999999999995 15231.925943209268
4.769999999999995 15234.638781599831
4.799999999999995 15257.370432166825
4.829999999999996 15296.94705384646
4.859999999999996 15348.703623318474
4.889999999999996 15407.053953667715
4.919999999999996 15466.116649043606
4.949999999999997 15520.329720663196
4.979999999999997 15564.992418340637
5.009999999999997 15596.683693101057
5.039999999999997 15613.5226846914
5.069999999999998 15615.255928182429
5.099999999999998 15603.174178586487
5.129999999999998 15579.877791526627
5.159999999999998 15548.92563357372
5.189999999999999 15514.41046484594
5.219999999999999 15480.509178232702
5.249999999999999 15451.054976975338
5.279999999999999 15429.173951631537
5.31 15417.018154295038
5.34 15415.615251732874
5.37 15424.84228323347
5.4 15443.517706822937
5.430000000000001 15469.593602888188
5.460000000000001 15500.422550677946
5.490000000000001 15533.066075661802
5.520000000000001 15564.610679569905
5.550000000000002 15592.459239368945
5.580000000000002 15614.569998733652
5.610000000000002 15629.622530818402
5.640000000000002 15637.099281139173
5.670000000000003 15637.280593676987
5.700000000000003 15631.15989642546
5.730000000000003 15620.293516697195
5.760000000000003 15606.604623500549
5.790000000000004 15592.16434207114
5.820000000000004 15578.973961081407
5.850000000000004 15568.770091317627
5.880000000000004 15562.870336263231
5.910000000000005 15562.072120600653
5.940000000000005 15566.610813170875
5.970000000000005 15576.176921638289
6.000000000000005 15589.986085869687
6.030000000000006 15606.891602262936
6.060000000000006 15625.524644420573
6.090000000000006 15644.44613558061
6.120000000000006 15662.294179577106
6.150000000000007 15677.913094207606
6.180000000000007 15690.452452798596
6.210000000000007 15699.428723354564
6.240000000000007 15704.746049182673
6.270000000000008 15706.677444965411
6.300000000000008 15705.811307126054
6.330000000000008 15702.970858446259
6.360000000000008 15699.11646264627
6.390000000000009 15695.241560957376
6.420000000000009 15692.27322380624
6.450000000000009 15690.986829359492
6.480000000000009 15691.941291841456
6.51000000000001 15695.4400387765
6.54000000000001 15701.520101676007
6.57000000000001 15709.967493127044
6.60000000000001 15720.355401086412
6.6300000000000106 15732.100589062165
6.660000000000011 15744.530688607225
6.690000000000011 15756.95511773232
6.720000000000011 15768.732805093357
6.7500000000000115 15779.330443549366
6.780000000000012 15788.366098070495
6.810000000000012 15795.635712288095
6.840000000000012 15801.12016562574
6.8700000000000125 15804.974617789936
6.900000000000013 15807.502395875734
6.930000000000013 15809.116051693967
6.960000000000013 15810.291147723126
6.9900000000000135 15811.517133602838
7.020000000000014 15813.249827482992
7.050000000000014 15815.870336712767
7.080000000000014 15819.653161215378
7.1100000000000145 15824.746473220159
7.140000000000015 15831.1658443357
7.170000000000015 15838.800389244605
7.200000000000015 15847.43068158951
7.2300000000000155 15856.755803883938
7.260000000000016 15866.426345642132
7.290000000000016 15876.08019092847
7.320000000000016 15885.37762229168
7.3500000000000165 15894.03236433803
7.380000000000017 15901.836047640534
7.410000000000017 15908.673901772267
7.440000000000017 15914.530939207943
7.4700000000000175 15919.488273388331
7.500000000000018 15923.710640652902
7.530000000000018 15927.426523401473
7.560000000000018 15930.903094218987
7.5900000000000185 15934.418655029021
7.620000000000019 15938.235206213667
7.650000000000019 15942.57383831215
7.680000000000019 15947.595087539035
7.7100000000000195 15953.385916188096
7.74000000000002 15959.954284030417
7.77000000000002 15967.231658623567
7.80000000000002 15975.082814094558
7.8300000000000205 15983.321738020006
7.860000000000021 15991.732045383606
7.890000000000021 16000.089597224583
7.920000000000021 16008.184917980525
7.9500000000000215 16015.843511383036
7.980000000000022 16022.941854361075
8.010000000000021 16029.417858864024
8.04000000000002 16035.274833466046
8.07000000000002 16040.578604991517
8.10000000000002 16045.44862302573
8.130000000000019 16050.043922632389
8.160000000000018 16054.54555079933
8.190000000000017 16059.137415570814
8.220000000000017 16063.98738914182
8.250000000000016 16069.230786305912
8.280000000000015 16074.957726687859
8.310000000000015 16081.2055647681
8.340000000000014 16087.956967244862
8.370000000000013 16095.14361743555
8.400000000000013 16102.655196089354
8.430000000000012 16110.352291597363
8.460000000000012 16118.08206128198
8.49000000000001 16125.694587255788
8.52000000000001 16133.058611683788
8.55000000000001 16140.074742051811
8.580000000000009 16146.684737978474
8.610000000000008 16152.87626779628
8.640000000000008 16158.682506324172
8.670000000000007 16164.17695328838
8.700000000000006 16169.464221329778
8.730000000000006 16174.667773067935
8.760000000000005 16179.916094245973
8.790000000000004 16185.329093807024
8.820000000000004 16191.005487208062
8.850000000000003 16197.013061744434
8.880000000000003 16203.382674836937
8.910000000000002 16210.10646502026
8.940000000000001 16217.140289658271
8.97 16224.410016985543
9.0 16231.82074040748
9.03 16239.267877063477
9.059999999999999 16246.648869577493
9.089999999999998 16253.874269274518
9.119999999999997 16260.877089374815
9.149999999999997 16267.619427713485
9.179999999999996 16274.095512828253
9.209999999999996 16280.330954522113
9.239999999999995 16286.378611977809
9.269999999999994 16292.311920152993
9.299999999999994 16298.216288438094
9.329999999999993 16304.179163977138
9.359999999999992 16310.280579823664
9.389999999999992 16316.584782996964
9.419999999999991 16323.133840058428
9.44999999999999 16329.943949988898
9.47999999999999 16337.004864199787
9.50999999999999 16344.282055505199
9.539999999999988 16351.721710617756
9.569999999999988 16359.257545557639
9.599999999999987 16366.819092749714
9.629999999999987 16374.339725922808
9.659999999999986 16381.763527460234
9.689999999999985 16389.050731605814
9.719999999999985 16396.18150882087
9.749999999999984 16403.157445489287
9.779999999999983 16410.00085872669
9.809999999999983 16416.750852403864
9.839999999999982 16423.457820466734
9.869999999999981 16430.17716260562
9.89999999999998 16436.962842877554
9.92999999999998 16443.861640253286
9.95999999999998 16450.908126706705
9.989999999999979 16458.121268060782
10.019999999999978 15230.948574403768
10.049999999999978 12390.411227491753
10.079999999999977 8396.089868189008
10.109999999999976 3813.3199259217117
10.139999999999976 -761.7985702854585
10.169999999999975 -4776.9992802281895
10.199999999999974 -7787.3926807639
10.229999999999974 -9500.874685619896
10.259999999999973 -9801.565098062461
10.289999999999973 -8750.444234085882
10.319999999999972 -6565.111818483035
10.349999999999971 -3582.724515000171
10.37999999999997 -211.70693753135598
10.40999999999997 3121.3963175893873
10.43999999999997 6023.520296826336
10.469999999999969 8179.324433705793
10.499999999999968 9383.431568276486
10.529999999999967 9557.605822534812
10.559999999999967 8751.655421635798
10.589999999999966 7128.901170427857
10.619999999999965 4938.8318229679
10.649999999999965 2481.1028527697244
10.679999999999964 65.90201143657626
10.709999999999964 -2024.1318530108392
10.739999999999963 -3565.809037290154
10.769999999999962 -4417.637460365751
10.799999999999962 -4530.475133617996
10.829999999999961 -3946.2374773473302
10.85999999999996 -2785.867797718063
10.88999999999996 -1228.8853895776138
10.919999999999959 512.3321940192608
10.949999999999958 2220.080682710869
10.979999999999958 3697.298883405891
11.009999999999957 4789.070254529785
11.039999999999957 5397.489070426501
11.069999999999956 5488.676518321772
11.099999999999955 5091.717381547548
11.129999999999955 4290.299931839376
11.159999999999954 3208.5922070080123
11.189999999999953 1993.505072489011
11.219999999999953 795.7230295070044
11.249999999999952 -248.1520384564559
11.279999999999951 -1030.3365011497892
11.30999999999995 -1482.0081268622996
11.33999999999995 -1578.0681630107663
11.36999999999995 -1336.4204566768346
11.399999999999949 -812.3390209950946
11.429999999999948 -88.98386680955188
11.459999999999948 734.4935294938499
11.489999999999947 1555.6795407072984
11.519999999999946 2280.9225326260034
11.549999999999946 2835.3259873668626
11.579999999999945 3169.733554921915
11.609999999999944 3264.1632234624653
11.639999999999944 3127.5996454164074
11.669999999999943 2794.4933944481722
11.699999999999942 2318.6488706412088
11.729999999999942 1765.438843540326
11.759999999999941 1203.3851441826737
11.78999999999994 696.1211847994525
11.81999999999994 295.62406541488843
11.84999999999994 37.370343821801214
11.879999999999939 -62.20515745549751
11.909999999999938 -5.87026968693091
11.939999999999937 186.42618319266873
11.969999999999937 481.33069374612245
11.999999999999936 837.0240169926731
12.029999999999935 1208.6569638323674
12.059999999999935 1553.6248239139697
12.089999999999934 1836.099977615728
12.119999999999933 2030.3841144897697
12.149999999999933 2122.8168002533093
12.179999999999932 2112.169028321005
12.209999999999932 2008.6237528146316
12.239999999999931 1831.5938165373834
12.26999999999993 1606.7337250928774
12.29999999999993 1362.5542019794023
12.329999999999929 1127.0485981324957
12.359999999999928 924.701575239777
12.389999999999928 774.1692419849148
12.419999999999927 686.8176305307745
12.449999999999926 666.1927814464044
12.479999999999926 708.3877584762935
12.509999999999925 803.1768531289573
12.539999999999925 935.7144823884461
12.569999999999924 1088.559237355705
12.599999999999923 1243.7695873360635
12.629999999999923 1384.8413426668858
12.659999999999922 1498.295020203621
12.689999999999921 1574.7840841837306
12.71999999999992 1609.659111417407
12.74999999999992 1602.9869939842545
12.77999999999992 1559.0839394408388
12.809999999999919 1485.6623045044062
12.839999999999918 1392.7179985145772
12.869999999999918 1291.3009696075057
12.899999999999917 1192.30476973318
12.929999999999916 1105.3930278513772
12.959999999999916 1038.156539833077
12.989999999999915 995.5587319699814
13.019999999999914 979.6930548028638
13.049999999999914 989.8446510769766
13.079999999999913 1022.8162040876798
13.109999999999912 1073.4604641430399
13.139999999999912 1135.3462035533682
13.169999999999911 1201.4810385300455
13.19999999999991 1265.019815751259
13.22999999999991 1319.895854228262
13.25999999999991 1361.3257546999907
13.289999999999909 1386.154008529097
13.319999999999908 1393.0219845689164
13.349999999999907 1382.362390374788
13.379999999999907 1356.2318556435202
13.409999999999906 1318.0100508126775
13.439999999999905 1272.001358286829
13.469999999999905 1222.9787406303274
13.499999999999904 1175.714587553865
13.529999999999903 1134.5402258091426
13.559999999999903 1102.9702930054068
13.589999999999902 1083.4188716054632
13.619999999999902 1077.0297854105145
13.6499999999999 1083.628560384897
13.6799999999999 1101.7993932987035
13.7099999999999 1129.073057440982
13.739999999999899 1162.2043030215964
13.769999999999898 1197.5132563083162
13.799999999999898 1231.2556989859186
13.829999999999897 1259.9875295573838
13.859999999999896 1280.89188754621
13.889999999999896 1292.0347534987645
13.919999999999895 1292.5284665686652
13.949999999999894 1282.587945021351
13.979999999999894 1263.4764638667668
14.009999999999893 1237.3459670336858
14.039999999999893 1206.9925450726016
14.069999999999892 1175.5569565673854
14.099999999999891 1146.192833692066
14.12999999999989 1121.740510591616
14.15999999999989 1104.443459701651
14.18999999999989 1095.7313967029042
14.219999999999889 1096.0950675737818
14.249999999999888 1105.0658456674482
14.279999999999887 1121.292822226041
14.309999999999887 1142.7077828852598
14.339999999999886 1166.7627477207598
14.369999999999886 1190.7156474561532
14.399999999999885 1211.9302024490219
14.429999999999884 1228.1555173170543
14.459999999999884 1237.7578228655761
14.489999999999883 1239.8774785438877
14.519999999999882 1234.4964011978848
14.549999999999882 1222.4127779777148
14.579999999999881 1205.1296965287268
14.60999999999988 1184.6695050234362
14.63999999999988 1163.3357230891481
14.66999999999988 1143.4505188055277
14.699999999999878 1127.099206076114
14.729999999999878 1115.9093512717666
14.759999999999877 1110.8872830594896
14.789999999999877 1112.3281886181655
14.819999999999876 1119.8087980077632
14.849999999999875 1132.259609069312
14.879999999999875 1148.1057131226585
14.909999999999874 1165.4591306573766
14.939999999999873 1182.3398511313328
14.969999999999873 1196.8998962006904
14.999999999999872 1207.6223790567046
15.029999999999871 1213.4760861516222
15.05999999999987 1214.0113772244733
15.08999999999987 1209.3864136689685
15.11999999999987 1200.3256465281988
15.149999999999869 1188.0165323190336
15.179999999999868 1173.9588033503046
15.209999999999868 1159.7838170419516
15.239999999999867 1147.0660715017855
15.269999999999866 1137.1483882610084
15.299999999999866 1131.000710870282
15.329999999999865 1129.1265030299935
15.359999999999864 1131.5262055416404
15.389999999999864 1137.7191235448925
15.419999999999863 1146.8176100359826
15.449999999999863 1157.6462132203146
15.479999999999862 1168.887052874542
15.509999999999861 1179.2337992288176
15.53999999999986 1187.537100989049
15.56999999999986 1192.9270115967613
15.59999999999986 1194.8967432329678
15.629999999999859 1193.341440347221
15.659999999999858 1188.5516511770193
15.689999999999857 1181.1617907472248
15.719999999999857 1172.0626946280142
15.749999999999856 1162.288401161785
15.779999999999855 1152.8937076936627
15.809999999999855 1144.8358326742828
15.839999999999854 1138.871271400519
15.869999999999854 1135.4794600012845
15.899999999999853 1134.8209993200376
15.929999999999852 1136.737320040821
15.959999999999852 1140.783939763866
15.989999999999851 1146.2941097662563
16.01999999999985 1152.4664335058108
16.04999999999985 1158.463726639964
16.079999999999853 1163.5098282893096
16.109999999999854 1166.9743396334177
16.139999999999855 1168.4361523722089
16.169999999999856 1167.7206395382568
16.199999999999857 1164.906157859591
16.22999999999986 1160.301380022658
