# Results for "element" with Id # 46198 for search config "initial" at position: x0: -31.3; y0: 0; z0: 223.684031579
# time PRESSURE
0.03 1374.0403764211705
0.06 3929.3551717093737
0.09 7380.281296387978
0.12 11374.712214645237
0.15 15527.149398882446
0.18 19453.87696915125
0.21 22806.887212207253
0.24 25303.704011717877
0.27 26750.657071753136
0.30000000000000004 27057.649693840187
0.33000000000000007 26243.132578019573
0.3600000000000001 24428.853186216038
0.3900000000000001 21824.950576082134
0.42000000000000015 18706.97955374797
0.4500000000000002 15387.32438723021
0.4800000000000002 12184.055904132316
0.5100000000000002 9390.490626224284
0.5400000000000003 7248.501538267775
0.5700000000000003 5928.059445769714
0.6000000000000003 5514.662995781869
0.6300000000000003 6005.390005367894
0.6600000000000004 7313.402142258996
0.6900000000000004 9279.96101716942
0.7200000000000004 11692.421609589674
0.7500000000000004 14306.273858217293
0.7800000000000005 16869.088529546254
0.8100000000000005 19144.176572787495
0.8400000000000005 20931.87616138807
0.8700000000000006 22086.6347501753
0.9000000000000006 22528.450984800707
0.9300000000000006 22247.768484028522
0.9600000000000006 21303.53630726011
0.9900000000000007 19814.816979804764
1.0200000000000007 17946.9527168954
1.0500000000000007 15893.829540145307
1.0800000000000007 13858.129635313491
1.1100000000000008 12031.601244803463
1.1400000000000008 10577.285466117839
1.1700000000000008 9615.343828749701
1.2000000000000008 9213.678357660036
1.2300000000000009 9383.990071483355
1.260000000000001 10083.355435575872
1.290000000000001 11220.870940399238
1.320000000000001 12668.474928103004
1.350000000000001 14274.729835964887
1.380000000000001 15880.151994320053
1.410000000000001 17332.610078492915
1.440000000000001 18501.37288727627
1.470000000000001 19288.561291373644
1.500000000000001 19637.032481034057
1.5300000000000011 19534.080581499962
1.5600000000000012 19010.744594950564
1.5900000000000012 18136.939166577402
1.6200000000000012 17013.03073414141
1.6500000000000012 15758.810518730275
1.6800000000000013 14501.051481130702
1.7100000000000013 13360.934486300559
1.7400000000000013 12442.590436904624
1.7700000000000014 11823.835430175774
1.8000000000000014 11549.903415433877
1.8300000000000014 11630.638387552908
1.8600000000000014 12041.244775987576
1.8900000000000015 12726.340037504091
1.9200000000000015 13606.752879483929
1.9500000000000015 14588.280165462305
1.9800000000000015 15571.47166999082
2.0100000000000016 16461.462920911905
2.0400000000000014 17176.91690304669
2.070000000000001 17657.25983210391
2.100000000000001 17867.588866188762
2.130000000000001 17800.87618220593
2.1600000000000006 17477.364945969817
2.1900000000000004 16941.33277395615
2.22 16255.647986374066
2.25 15494.74790574102
2.28 14736.801891351068
2.3099999999999996 14055.871430977486
2.3399999999999994 13514.844709229843
2.369999999999999 13159.809166236442
2.399999999999999 13016.350434494061
2.429999999999999 13088.048218697018
2.4599999999999986 13357.210311292207
2.4899999999999984 13787.660255611807
2.5199999999999982 14329.2043967075
2.549999999999998 14923.258108287053
2.579999999999998 15509.023026888684
2.6099999999999977 16029.582941645625
2.6399999999999975 16437.322798267727
2.6699999999999973 16698.16813821584
2.699999999999997 16794.28060957138
2.729999999999997 16725.0132326306
2.7599999999999967 16506.111119646863
2.7899999999999965 16167.320507178392
2.8199999999999963 15748.721176391022
2.849999999999996 15296.212016194857
2.879999999999996 14856.645383855011
2.9099999999999957 14473.11659835664
2.9399999999999955 14180.873534659786
2.9699999999999953 14004.224178256805
2.999999999999995 13954.698763252192
3.029999999999995 14030.583838187173
3.0599999999999947 14217.800653245242
3.0899999999999945 14491.96860553055
3.1199999999999943 14821.384438082043
3.149999999999994 15170.572255438296
3.179999999999994 15504.020367962901
3.2099999999999937 15789.72300709311
3.2399999999999936 16002.183847017683
3.2699999999999934 16124.609362587353
3.299999999999993 16150.114935417463
3.329999999999993 16081.87378263242
3.3599999999999928 15932.249907335072
3.3899999999999926 15721.055136960229
3.4199999999999924 15473.153034664463
3.449999999999992 15215.68594910996
3.479999999999992 14975.225679645637
3.509999999999992 14775.13962520078
3.5399999999999916 14633.426155357456
3.5699999999999914 14561.211494472089
3.599999999999991 14562.022983077422
3.629999999999991 14631.867755712467
3.659999999999991 14760.06327725179
3.6899999999999906 14930.69388284808
3.7199999999999904 15124.510509363126
3.7499999999999902 15321.057444061355
3.77999999999999 15500.798731992541
3.80999999999999 15647.029883549754
3.8399999999999896 15747.394425949484
3.8699999999999894 15794.874697417548
3.8999999999999893 15788.186519196532
3.929999999999989 15731.572438765175
3.959999999999989 15634.048809213731
3.9899999999999887 15508.214416592595
4.019999999999989 15368.767098757078
4.049999999999989 15230.895512710873
4.079999999999989 15108.71666385568
4.10999999999999 15013.914910188932
4.13999999999999 14954.708551409047
4.16999999999999 14935.22930327009
4.19999999999999 14955.352909207657
4.229999999999991 15010.970593578997
4.259999999999991 15094.647891137727
4.289999999999991 15196.579797074392
4.319999999999991 15305.727750160353
4.349999999999992 15411.011889681544
4.379999999999992 15502.434100317645
4.409999999999992 15572.022158787322
4.439999999999992 15614.51006245295
4.469999999999993 15627.701711808406
4.499999999999993 15612.500567505573
4.529999999999993 15572.623268952439
4.559999999999993 15514.045650699703
4.589999999999994 15444.25458087176
4.619999999999994 15371.39381840211
4.649999999999994 15303.397509052604
4.679999999999994 15247.200089340402
4.709999999999995 15208.09831064422
4.739999999999995 15189.32047952032
4.769999999999995 15191.833437497677
4.799999999999995 15214.39141496324
4.829999999999996 15253.806608439987
4.859999999999996 15305.398910232654
4.889999999999996 15363.567751520957
4.919999999999996 15422.419733057917
4.949999999999997 15476.38453533671
4.979999999999997 15520.757376205016
5.009999999999997 15552.117663182216
5.039999999999997 15568.589320411516
5.069999999999998 15569.927163573693
5.099999999999998 15557.432409561217
5.129999999999998 15533.716752841345
5.159999999999998 15502.349852131912
5.189999999999999 15467.433504816445
5.219999999999999 15433.150907529793
5.249999999999999 15403.338400022152
5.279999999999999 15381.121734326416
5.31 15368.649259334119
5.34 15366.942332689372
5.37 15375.869997587839
5.4 15394.242133364363
5.430000000000001 15420.00288784326
5.460000000000001 15450.498299091734
5.490000000000001 15482.785419026106
5.520000000000001 15513.948825492735
5.550000000000002 15541.392043952648
5.580000000000002 15563.076171629076
5.610000000000002 15577.68538542168
5.640000000000002 15584.707829184918
5.670000000000003 15584.42995239412
5.700000000000003 15577.850881490624
5.730000000000003 15566.531446316201
5.760000000000003 15552.397716794389
5.790000000000004 15537.522025868335
5.820000000000004 15523.90522025982
5.850000000000004 15513.281922455766
5.880000000000004 15506.966551668322
5.910000000000005 15505.752565428675
5.940000000000005 15509.871014676055
5.970000000000005 15519.008362643031
6.000000000000005 15532.377084233454
6.030000000000006 15548.828405271406
6.060000000000006 15566.992596059968
6.090000000000006 15585.430864925867
6.120000000000006 15602.782774790652
6.150000000000007 15617.895026931672
6.180000000000007 15629.920180169096
6.210000000000007 15638.377864724936
6.240000000000007 15643.175286856585
6.270000000000008 15644.588008531147
6.300000000000008 15643.206086521659
6.330000000000008 15639.853347343926
6.360000000000008 15635.489719210056
6.390000000000009 15631.107446252372
6.420000000000009 15627.631832387122
6.450000000000009 15625.835936100082
6.480000000000009 15626.27623731607
6.51000000000001 15629.254008472066
6.54000000000001 15634.80460526362
6.57000000000001 15642.71290807458
6.60000000000001 15652.551885965908
6.6300000000000106 15663.738868715327
6.660000000000011 15675.602637417534
6.690000000000011 15687.454247915364
6.720000000000011 15698.654510665881
6.7500000000000115 15708.671947646935
6.780000000000012 15717.126254317422
6.810000000000012 15723.814385598856
6.840000000000012 15728.717866537228
6.8700000000000125 15731.992178421806
6.900000000000013 15733.94051817617
6.930000000000013 15734.975155401173
6.960000000000013 15735.571139283757
6.9900000000000135 15736.217173682726
7.020000000000014 15737.368148480586
7.050000000000014 15739.404147525047
7.080000000000014 15742.598928352845
7.1100000000000145 15747.100433145875
7.140000000000015 15752.924433301172
7.170000000000015 15759.960798165845
7.200000000000015 15767.991210340664
7.2300000000000155 15776.715979270943
7.260000000000016 15785.787045611838
7.290000000000016 15794.843613816436
7.320000000000016 15803.547157302188
7.3500000000000165 15811.612367431364
7.380000000000017 15818.831486581723
7.410000000000017 15825.090025229281
7.440000000000017 15830.37295037345
7.4700000000000175 15834.76126888796
7.500000000000018 15838.41959494581
7.530000000000018 15841.576213155555
7.560000000000018 15844.498126671315
7.5900000000000185 15847.463529998353
7.620000000000019 15850.734466618303
7.650000000000019 15854.53221947613
7.680000000000019 15859.017603841501
7.7100000000000195 15864.277971191712
7.74000000000002 15870.321727022483
7.77000000000002 15877.08099376792
7.80000000000002 15884.42123388536
7.8300000000000205 15892.15711056383
7.860000000000021 15900.072732032042
7.890000000000021 15907.944288611032
7.920000000000021 15915.56249168094
7.9500000000000215 15922.752897852775
7.980000000000022 15929.391820440174
8.010000000000021 15935.416910260528
8.04000000000002 15940.83096341621
8.07000000000002 15945.699159097905
8.10000000000002 15950.140279207119
8.130000000000019 15954.312783149519
8.160000000000018 15958.397303432324
8.190000000000017 15962.577458221796
8.220000000000017 15967.020918871489
8.250000000000016 15971.86279539327
8.280000000000015 15977.19293341636
8.310000000000015 15983.04838844357
8.340000000000014 15989.411490809543
8.370000000000013 15996.213590646852
8.400000000000013 16003.344014521868
8.430000000000012 16010.662984124303
8.460000000000012 16018.017237168197
8.49000000000001 16025.25637749622
8.52000000000001 16032.248635101005
8.55000000000001 16038.894018189476
8.580000000000009 16045.13358945878
8.610000000000008 16050.954296382728
8.640000000000008 16056.388651271816
8.670000000000007 16061.509502173456
8.700000000000006 16066.420796975543
8.730000000000006 16071.245404435924
8.760000000000005 16076.111370826127
8.790000000000004 16081.138180525695
8.820000000000004 16086.424258681714
8.850000000000003 16092.037246312564
8.880000000000003 16098.0079461268
8.910000000000002 16104.328442922315
8.940000000000001 16110.954407503405
8.97 16117.81134889019
9.0 16124.803973406631
9.03 16131.827248034508
9.059999999999999 16138.778176446063
9.089999999999998 16145.566932301144
9.119999999999997 16152.126132549045
9.149999999999997 16158.417526983014
9.179999999999996 16164.435036542876
9.209999999999996 16170.204034130142
9.239999999999995 16175.777271940384
9.269999999999994 16181.228036869037
9.299999999999994 16186.641589291205
9.329999999999993 16192.105250553965
9.359999999999992 16197.698890764832
9.389999999999992 16203.486547434602
9.419999999999991 16209.510053656142
9.44999999999999 16215.785394326756
9.47999999999999 16222.302093102031
9.50999999999999 16229.02547287747
9.539999999999988 16235.901533382124
9.569999999999988 16242.863871110207
9.599999999999987 16249.841763220087
9.629999999999987 16256.768294945328
9.659999999999986 16263.587396926825
9.689999999999985 16270.25935379716
9.719999999999985 16276.76461305573
9.749999999999984 16283.105087511598
9.779999999999983 16289.303195581193
9.809999999999983 16295.398102072228
9.839999999999982 16301.440566303541
9.869999999999981 16307.486727777334
9.89999999999998 16313.591625140696
9.92999999999998 16319.803082638411
9.95999999999998 16326.156695454567
9.989999999999979 16332.672468177216
10.019999999999978 15110.84146273525
10.049999999999978 12281.637363938902
10.079999999999977 8299.772340885522
10.109999999999976 3726.3702662977607
10.139999999999976 -844.8960387570097
10.169999999999975 -4862.065261475658
10.199999999999974 -7878.818448502186
10.229999999999974 -9600.70441058208
10.259999999999973 -9909.455670145237
10.289999999999973 -8864.29007745238
10.319999999999972 -6681.971831944099
10.349999999999971 -3699.709270082951
10.37999999999997 -326.6003216570088
10.40999999999997 3009.86111015305
10.43999999999997 5915.685039756325
10.469999999999969 8074.817057463345
10.499999999999968 9281.439826089505
10.529999999999967 9457.115881203616
10.559999999999967 8651.61950974365
10.589999999999966 7028.3271913351045
10.619999999999965 4836.828005593696
10.649999999999965 2376.913040986848
10.679999999999964 -41.043822389307834
10.709999999999964 -2134.148317904257
10.739999999999963 -3678.8853682796894
10.769999999999962 -4533.394391816808
10.799999999999962 -4648.172962739698
10.829999999999961 -4064.855605477683
10.85999999999996 -2904.243221930548
10.88999999999996 -1345.891375310667
10.919999999999959 397.60631811667605
10.949999999999958 2108.1844881221195
10.979999999999958 3588.340218950615
11.009999999999957 4682.712550915025
11.039999999999957 5293.025336640214
11.069999999999956 5385.159117627082
11.099999999999955 4988.120080766153
11.129999999999955 4185.677997459592
11.159999999999954 3102.218906792344
11.189999999999953 1884.9638197280183
11.219999999999953 684.9478384573542
11.249999999999952 -360.8895743403802
11.279999999999951 -1144.484994994497
11.30999999999995 -1596.828895622458
11.33999999999995 -1692.7451723239815
11.36999999999995 -1450.1737198815472
11.399999999999949 -924.5238209308726
11.429999999999948 -199.1657936528135
11.459999999999948 626.4975742175992
11.489999999999947 1449.7968751318026
11.519999999999946 2176.8546640900254
11.549999999999946 2732.6065102823864
11.579999999999945 3067.8047963138683
11.609999999999944 3162.459647561523
11.639999999999944 3025.626679608937
11.669999999999943 2691.8904522904627
11.699999999999942 2215.2292167388628
11.729999999999942 1661.203134622635
11.759999999999941 1098.5082630144486
11.78999999999994 590.9164032760342
11.81999999999994 190.48981684955646
11.84999999999994 -67.27088478197044
11.879999999999939 -165.96709035252758
11.909999999999938 -108.45310609484467
11.939999999999937 85.20122823896774
11.969999999999937 381.5063516274267
11.999999999999936 738.5113354452578
12.029999999999935 1111.2574550148727
12.059999999999935 1457.0649858415456
12.089999999999934 1740.07276665401
12.119999999999933 1934.591108911452
12.149999999999933 2027.006300000578
12.179999999999932 2016.164385467864
12.209999999999932 1912.3398839009071
12.239999999999931 1735.0389176519661
12.26999999999993 1509.9988029294564
12.29999999999993 1265.7920548073944
12.329999999999929 1030.446893553078
12.359999999999928 828.4541675710708
12.389999999999928 678.4497719222455
12.419999999999927 591.757635164605
12.449999999999926 571.8675635219283
12.479999999999926 614.8111715042295
12.509999999999925 710.3054935361828
12.539999999999925 843.4591129626847
12.569999999999924 996.8013400290837
12.599999999999923 1152.3805936182453
12.629999999999923 1293.7012869524178
12.659999999999922 1407.3084317693422
12.689999999999921 1483.8918411399306
12.71999999999992 1518.844787280686
12.74999999999992 1512.2773314326137
12.77999999999992 1468.5438585243962
12.809999999999919 1395.385623122812
12.839999999999918 1302.8155003399174
12.869999999999918 1201.8875602049834
12.899999999999917 1103.487021348292
12.929999999999916 1017.2592299122233
12.959999999999916 950.770095580148
12.989999999999915 908.9555579149724
13.019999999999914 893.8832194238096
13.049999999999914 904.8168018360061
13.079999999999913 938.5446018500419
13.109999999999912 989.9130917990014
13.139999999999912 1052.4930937512145
13.169999999999911 1119.3019505474897
13.19999999999991 1183.5100771222476
13.22999999999991 1239.0697035209644
13.25999999999991 1281.2165263352226
13.289999999999909 1306.8113937830449
13.319999999999908 1314.5074645255559
13.349999999999907 1304.7428141486992
13.379999999999907 1279.573231090545
13.409999999999906 1242.3715635930082
13.439999999999905 1197.430258017307
13.469999999999905 1149.5073362813032
13.499999999999904 1103.3597632999115
13.529999999999903 1063.3043099026493
13.559999999999903 1032.8432213627489
13.589999999999902 1014.3819897472601
13.619999999999902 1009.0592561747728
13.6499999999999 1016.6998174703555
13.6799999999999 1035.890487348529
13.7099999999999 1064.1668569345798
13.739999999999899 1098.2906743609842
13.769999999999898 1134.5891603983002
13.799999999999898 1169.3245359954367
13.829999999999897 1199.056872126976
13.859999999999896 1220.9695167852863
13.889999999999896 1233.1249473145365
13.919999999999895 1234.628449840309
13.949999999999894 1225.6854269377634
13.979999999999894 1207.5477171820285
14.009999999999893 1182.3568337688923
14.039999999999893 1152.900560869262
14.069999999999892 1122.3112273091863
14.099999999999891 1093.7351843372344
14.12999999999989 1070.008594314837
14.15999999999989 1053.3731722789323
14.18999999999989 1045.2611881519913
14.219999999999889 1046.168616539755
14.249999999999888 1055.6292416511112
14.279999999999887 1072.291500532751
14.309999999999887 1094.0860023454204
14.339999999999886 1118.4646757982443
14.369999999999886 1142.6868433342127
14.399999999999885 1164.118347839192
14.429999999999884 1180.5101259778578
14.459999999999884 1190.228442893692
14.489999999999883 1192.4123786435218
14.519999999999882 1187.0427053540614
14.549999999999882 1174.9179823391107
14.579999999999881 1157.5434818723916
14.60999999999988 1136.944329046979
14.63999999999988 1115.4264614327897
14.66999999999988 1095.3152278415441
14.699999999999878 1078.7005251479839
14.729999999999878 1067.2157612433682
14.759999999999877 1061.8737852527806
14.789999999999877 1062.9772726868641
14.819999999999876 1070.1102238265548
14.849999999999875 1082.2095203977694
14.879999999999875 1097.7055897673404
14.909999999999874 1114.7151714141223
14.939999999999873 1131.262232760102
14.969999999999873 1145.5008160931059
14.999999999999872 1155.9149718346616
15.029999999999871 1161.4744528999493
15.05999999999987 1161.7310981845362
15.08999999999987 1156.8457081793945
15.11999999999987 1147.545565473591
15.149999999999869 1135.0205000102549
15.179999999999868 1120.7718640779854
15.209999999999868 1106.4315011947854
15.239999999999867 1093.572763259218
15.269999999999866 1083.5374782114304
15.299999999999866 1077.2959975781587
15.329999999999865 1075.3537998207298
15.359999999999864 1077.714142797564
15.389999999999864 1083.8988531180476
15.419999999999863 1093.0224522648232
15.449999999999863 1103.9103604237703
15.479999999999862 1115.2441227075215
15.509999999999861 1125.7162707774694
15.53999999999986 1134.1763112547792
15.56999999999986 1139.7532619640406
15.59999999999986 1141.9391559983526
15.629999999999859 1140.6291322873856
15.659999999999858 1136.1139676077967
15.689999999999857 1129.0282897669226
15.719999999999857 1120.2628763728258
15.749999999999856 1110.8531003304183
15.779999999999855 1101.8554080270171
15.809999999999855 1094.2279735909544
15.839999999999854 1088.7271697745925
15.869999999999854 1085.831766196418
15.899999999999853 1085.702175292335
15.929999999999852 1088.1785478231964
15.959999999999852 1092.8137376623424
15.989999999999851 1098.9380494148083
16.01999999999985 1105.7465845438153
16.04999999999985 1112.3979263208635
16.079999999999853 1118.111825626344
16.109999999999854 1122.253413869967
16.139999999999855 1124.396801882798
16.169999999999856 1124.3618335445856
16.199999999999857 1122.2217026195258
16.22999999999986 1118.280688808715
