# Level force for level 54
# start: 0.0, 0.0, 247.68498703703702
# center: 0.0, 0.0, 249.9998
# end: 0.0, 0.0, 249.9998
# as part of FluidModelPart.Drag_structure
# Time Fx Fy Fz Mx My Mz Fx' Fy' Fz' Mx' My' Mz'
0.03 2655.47374210 455.60788672 -3468789.82780286 1428.92625768 -299478.48302879 62028.19027464 2199.86691656 -1555.54006404 -3468789.82780286 -210752.86272249 -212773.66961574 62028.19027464
0.06 7396.74032483 1302.92600212 -9919805.15226420 4065.28563428 -858534.58385416 177362.95624854 6151.59305385 -4308.97743088 -9919805.15226420 -604201.03508699 -609950.21716590 177362.95624854
0.09 13717.28704577 2447.28358505 -18631526.22302909 7591.96405257 -1616739.37333359 333110.66264563 11430.07750802 -7969.09587107 -18631526.22302909 -1137839.04503137 -1148575.70355957 333110.66264563
0.12 21025.80920274 3771.75248549 -28714469.76716830 11624.14804943 -2498895.68767266 513365.61503013 17534.52402664 -12200.46050775 -28714469.76716830 -1758766.57231989 -1775205.60014242 513365.61503013
0.15 28677.03521682 5148.34114675 -39195025.56936947 15744.83599064 -3420982.27014782 700708.02749559 23918.15300287 -16637.29912941 -39195025.56936947 -2407866.48124283 -2430133.04183808 700708.02749559
0.18 36004.93942166 6449.83471316 -49104664.69144760 19544.83950292 -4296548.98393869 877800.26157670 30020.05868448 -20898.61495806 -49104664.69144760 -3024298.63369349 -3051939.21079293 877800.26157670
0.21 42364.44398925 7561.08061509 -57565790.43773372 22662.85656308 -5043675.12899533 1028926.92543630 35302.67700203 -24609.69424997 -57565790.43773372 -3550391.82625769 -3582441.94537139 1028926.92543630
0.24 47184.04243738 8388.74784758 -63866890.26703355 24820.93178219 -5592392.26613176 1141347.70271348 39295.89685995 -27432.41588258 -63866890.26703355 -3936867.44525839 -3971969.54361552 1141347.70271348
0.27 50026.86159939 8868.86148724 -67520816.30880445 25849.47045007 -5891954.79426846 1206348.41764536 41645.56517744 -29103.10097938 -67520816.30880445 -4147962.85362650 -4184519.52531713 1206348.41764536
0.30000000000000004 50648.58089463 8971.52782011 -68301404.16983284 25701.29727677 -5916925.74080420 1219902.39385620 42157.78316727 -29470.12684887 -68301404.16983284 -4165724.75351021 -4202071.87668961 1219902.39385620
0.33000000000000007 49042.93758124 8702.58323629 -66255413.41140023 24447.62479411 -5670820.03343976 1182881.89555225 40832.24935322 -28524.93811279 -66255413.41140023 -3992588.21925797 -4027162.38180959 1182881.89555225
0.3600000000000001 45460.69421411 8101.90993572 -61688935.85028307 22260.75146510 -5186308.84546107 1100807.01206976 37874.48061236 -26416.64970013 -61688935.85028307 -3651533.42563801 -3683014.88226858 1100807.01206976
0.3900000000000001 40387.04662047 7238.61825064 -55129846.58692320 19392.22380522 -4521659.10606351 983164.22439519 33676.43058888 -23439.47848598 -55129846.58692320 -3183583.44315645 -3211008.18906638 983164.22439519
0.42000000000000015 34490.37636006 6203.55460526 -47270298.60793378 16140.38414513 -3753556.47815970 842365.63242288 28774.95453871 -20001.80348104 -47270298.60793378 -2642752.26419345 -2665578.21435341 842365.63242288
0.4500000000000002 28528.74251060 5099.82433155 -38895333.31674606 12822.63448343 -2967621.63036793 692468.39859449 23778.98765567 -16566.74692027 -38895333.31674606 -2089358.40703312 -2107492.35062498 692468.39859449
0.4800000000000002 23246.02176712 4032.56032801 -30805100.65738018 9746.88429746 -2247937.42301817 547781.48806353 19288.87038062 -13585.96887366 -30805100.65738018 -1582639.70751697 -1596423.88348134 547781.48806353
0.5100000000000002 19271.51264445 3098.93125327 -23738690.38911207 7186.03482134 -1667278.99678119 421505.55308798 15818.29257823 -11435.74197099 -23738690.38911207 -1173862.99080186 -1184025.57870588 421505.55308798
0.5400000000000003 17041.87138546 2379.39401364 -18307114.80503241 5356.60038772 -1279391.78563099 324538.92777850 13732.90846293 -10367.93717861 -18307114.80503241 -900878.91895578 -908454.29587231 324538.92777850
0.5700000000000003 16756.62187887 1930.93620823 -14941645.89746470 4399.61964752 -1114172.02599015 264559.15779253 13214.09904721 -10483.34287345 -14941645.89746470 -784727.59409859 -790949.59587340 264559.15779253
0.6000000000000003 18370.12739436 1782.90973785 -13861738.57046429 4372.29140801 -1176011.65041012 245454.49422605 14250.34921769 -11728.93408593 -13861738.57046429 -828474.13585546 -834657.48966331 245454.49422605
0.6300000000000003 21615.84372693 1935.58945837 -15064501.25842507 5243.22440740 -1445075.55986929 267139.58433332 16653.37811199 -13916.04124877 -15064501.25842507 -1018115.20817675 -1025530.24724427 267139.58433332
0.6600000000000004 26054.80234498 2361.54823834 -18335414.89816088 6899.54538859 -1880980.55184284 325749.82881228 20093.39419404 -16753.66064719 -18335414.89816088 -1325175.38815671 -1334932.81881946 325749.82881228
0.6900000000000004 31138.52448288 3009.39981946 -23278031.33313666 9157.42143187 -2428195.33545570 414174.02367031 24146.22883763 -19890.29479835 -23278031.33313666 -1710518.11295361 -1723468.66253892 414174.02367031
0.7200000000000004 36278.11114393 3809.58393454 -29358843.72756514 11782.46416746 -3022528.66013816 522857.71854700 28346.28103213 -22958.71576490 -29358843.72756514 -2128919.05160248 -2145581.97222628 522857.71854700
0.7500000000000004 40912.75681133 4681.49296638 -35962489.02443668 14513.57244709 -3598127.63103758 640791.06031361 32240.00320094 -25619.37235572 -35962489.02443668 -2533997.80198479 -2554523.09297791 640791.06031361
0.7800000000000005 44571.89808296 5541.27807513 -42451893.13049378 17088.75276093 -4094413.54071233 756584.88568267 35435.36668818 -27598.81608146 -42451893.13049378 -2883104.00666044 -2907271.15257898 756584.88568267
0.8100000000000005 46925.61162609 6309.63458385 -48227857.74044713 19270.20667417 -4462349.15619390 859536.44123757 37643.00359318 -28719.83279109 -48227857.74044713 -3141731.25455262 -3168983.44218096 859536.44123757
0.8400000000000005 47817.94954472 6918.89286886 -52782865.49154428 20865.71163525 -4669385.42654234 940590.85700828 38704.79245138 -28920.00031963 -52782865.49154428 -3286999.81289014 -3316508.38527325 940590.85700828
0.8700000000000006 47278.77238383 7318.85479844 -55744513.91361809 21747.30906016 -4702471.35180691 993115.95561907 38606.35241727 -28255.92870028 -55744513.91361809 -3309771.71148911 -3340527.05090714 993115.95561907
0.9000000000000006 45511.72951467 7480.80586409 -56904962.13659187 21859.59957577 -4568684.85036123 1013425.70620979 37471.38111859 -26891.92400812 -56904962.13659187 -3215090.96770065 -3246005.10988873 1013425.70620979
0.9300000000000006 42859.69957725 7399.48138971 -56234046.19533721 21225.10877481 -4293373.42897412 1001010.84011609 35538.60767862 -25074.16074276 -56234046.19533721 -3020865.04744765 -3050881.88413984 1001010.84011609
0.9600000000000006 39752.54757609 7092.67632948 -53875236.33979270 19936.37814417 -3916072.15143374 958462.51457832 33124.57548983 -23094.01643116 -53875236.33979270 -2754984.02571659 -2783178.32207265 958462.51457832
0.9900000000000007 36645.74589053 6598.82468229 -50125250.51823294 18150.51289558 -3484870.50460197 891104.35538493 30578.52910154 -21246.38174012 -50125250.51823294 -2451341.21461054 -2477009.91611150 891104.35538493
1.0200000000000007 33959.67417522 5972.54538367 -45399723.82891581 16069.29364864 -3050108.28607944 806376.45891300 28236.34323792 -19789.88855445 -45399723.82891581 -2145389.54593220 -2168114.95894785 806376.45891300
1.0500000000000007 32028.67882679 5278.82247570 -40188713.50084531 13917.73130476 -2658337.35409883 713039.27232048 26380.38716012 -18915.00482162 -40188713.50084531 -1869887.04758046 -1889569.69194911 713039.27232048
1.0800000000000007 31066.57308560 4586.37031170 -35006764.41442239 11920.09282367 -2347340.22438312 620281.86588535 25210.43804549 -18724.33094861 -35006764.41442239 -1651391.41194525 -1668248.96888122 620281.86588535
1.1100000000000008 31151.68978455 3960.88293201 -30342683.50830505 10276.37548506 -2142732.65258293 536826.33084600 24828.33827278 -19226.80391136 -30342683.50830505 -1507874.29411972 -1522407.28370273 536826.33084600
1.1400000000000008 32231.00359214 3458.85327983 -26614003.39059298 9142.52871467 -2056361.69044466 470116.81545997 25236.53981375 -20344.98259516 -26614003.39059298 -1447602.55183432 -1460532.03993700 470116.81545997
1.1700000000000008 34139.97446827 3122.52100538 -24130404.77651913 8614.13064226 -2086426.39556697 425668.85210080 26348.56323335 -21932.65167875 -24130404.77651913 -1469235.14256084 -1481417.36294319 425668.85210080
1.2000000000000008 36633.35646682 2976.47340516 -23069228.39808089 8720.73452936 -2219057.21833814 406634.29216598 28008.37930412 -23799.01024650 -23069228.39808089 -1562943.91640522 -1575276.89745051 406634.29216598
1.2300000000000009 39421.36807296 3026.05209389 -23464819.69011721 9424.59982844 -2430960.40164886 413612.54675241 30014.85864385 -25735.37473223 -23464819.69011721 -1712284.38635323 -1725612.78325053 413612.54675241
1.260000000000001 42206.68113627 3257.74827754 -25211981.63193428 10630.02782337 -2692736.10428269 444713.09215973 32148.20634128 -27541.05454439 -25211981.63193428 -1896535.39452603 -1911568.52404223 444713.09215973
1.290000000000001 44717.66470268 3641.31124933 -28082452.58987657 12195.71903264 -2972441.00241047 495850.19348763 34194.95982690 -29045.36807328 -28082452.58987657 -2093209.51385197 -2110456.86511081 495850.19348763
1.320000000000001 46735.43505358 4133.39841249 -31752169.49274994 13953.27537800 -3239064.18589732 561230.05720715 35969.69709490 -30124.18900127 -31752169.49274994 -2280497.79490694 -2300230.70618603 561230.05720715
1.350000000000001 48112.68172091 4682.29313990 -35836234.68587392 15727.51061886 -3465595.02515496 633975.46074680 37331.68473665 -30709.92227520 -35836234.68587392 -2439424.71372367 -2461666.77254324 633975.46074680
1.380000000000001 48783.51061477 5233.20703390 -39927984.42202708 17355.86413677 -3631437.35553606 706823.47297942 38195.58734681 -30794.71498476 -39927984.42202708 -2555541.53032921 -2580086.42877816 706823.47297942
1.410000000000001 48764.23914415 5733.63990954 -43638374.84330367 18704.58415797 -3723982.91915895 772828.68564734 38535.81983915 -30427.22851731 -43638374.84330367 -2620027.43686277 -2646479.71345754 772828.68564734
1.440000000000001 48145.78219832 6138.28590629 -46632039.58619541 19679.48109896 -3739240.62010694 826006.82265735 38384.63266716 -29703.78548876 -46632039.58619541 -2630126.90443051 -2657957.89350113 826006.82265735
1.470000000000001 47078.93271353 6413.06898765 -48656805.47823822 20232.49114350 -3681518.06471093 861861.36786759 37824.55714214 -28755.10800338 -48656805.47823822 -2588919.85693001 -2617532.92030573 861861.36786759
1.500000000000001 45754.12712933 6537.89123577 -49564147.67164931 20359.30536056 -3562241.82768369 877748.25407300 36976.04078790 -27730.06633295 -49564147.67164931 -2504489.14970079 -2533281.55546221 877748.25407300
1.5300000000000011 44378.15945318 6507.96786489 -49318965.71376856 20094.91999928 -3398119.48953718 873049.76937583 35981.92569493 -26778.26927692 -49318965.71376856 -2388624.08013500 -2417042.58853281 873049.76937583
1.5600000000000012 43150.01045944 6333.59955288 -47998112.35135483 19504.95508514 -3208882.28577413 849147.55085861 34990.19619730 -26033.13381098 -47998112.35135483 -2255230.33829284 -2282814.51030773 849147.55085861
1.5900000000000012 42238.83811348 6038.48841918 -45778192.78362365 18674.54124729 -3014922.47909126 809203.95559333 34137.22496880 -25597.51275016 -45778192.78362365 -2118667.23496568 -2145077.02446871 809203.95559333
1.6200000000000012 41766.28973652 5656.88264031 -42914205.15024444 17700.54553148 -2835091.95405450 757779.91100750 33533.24677304 -25533.20662235 -42914205.15024444 -1992196.57022333 -2017228.92177534 757779.91100750
1.6500000000000012 41795.18529519 5229.77585408 -39711447.39424485 16683.01920082 -2684899.17551588 700332.55287120 33251.66891368 -25855.64897267 -39711447.39424485 -1886713.73780188 -1910307.08981700 700332.55287120
1.6800000000000013 42325.66638072 4800.63653439 -36493726.76221178 15718.36056942 -2575261.09550536 642647.15804279 33323.32836353 -26534.20306857 -36493726.76221178 -1809870.02460998 -1832099.14330550 642647.15804279
1.7100000000000013 43298.98794560 4411.08809898 -33571167.65373977 14894.06087048 -2511880.45491561 590262.24251018 33736.11830205 -27497.89768764 -33571167.65373977 -1765636.01175988 -1786699.39464171 590262.24251018
1.7400000000000013 44608.15611042 4096.97825376 -31210819.83694874 14284.39128943 -2495240.23027134 547944.91818303 34439.73078751 -28645.72857630 -31210819.83694874 -1754300.69756847 -1774501.87746023 547944.91818303
1.7700000000000014 46113.80117600 3885.18289349 -29612837.67697436 13944.50979138 -2521137.48504438 519264.84200362 35354.62068798 -29860.14234770 -29612837.67697436 -1772853.15454467 -1792573.66941227 519264.84200362
1.8000000000000014 47663.16371628 3791.46371841 -28894300.02859285 13908.59063894 -2581642.25870886 506306.34829917 36383.91598249 -31021.97657068 -28894300.02859285 -1815661.88897326 -1835331.60648835 506306.34829917
1.8300000000000014 49109.54272177 3819.45439171 -29081870.13648365 14186.03016633 -2666320.11993785 509538.34436365 37426.45278035 -32024.92857873 -29081870.13648365 -1875341.99949345 -1895404.07575090 509538.34436365
1.8600000000000014 50330.09055705 3960.91387004 -30113557.16655602 14761.14507651 -2763578.03654382 527846.48939655 38389.53738783 -32787.95927342 -30113557.16655602 -1943707.06419664 -1964582.47576003 527846.48939655
1.8900000000000015 51239.32435222 4197.08633436 -31848943.51063236 15593.09736153 -2861950.61663929 558716.84296563 39199.46192112 -33263.88550462 -31848943.51063236 -2012678.70356264 -2034730.67333069 558716.84296563
1.9200000000000015 51797.04077282 4500.99001081 -34086465.29888768 16617.69428161 -2951207.51433423 598544.90041642 39808.71933455 -33443.35821716 -34086465.29888768 -2075068.36176018 -2098569.33038862 598544.90041642
1.9500000000000015 52009.59693550 4840.41324151 -36585745.04176008 17752.85837985 -3023169.19043006 643034.62856311 40199.02770669 -33353.64965305 -36585745.04176008 -2125150.26868150 -2150256.60177319 643034.62856311
1.9800000000000015 51924.68318710 5181.26082352 -39092601.99341546 18906.23316626 -3072175.13722101 687645.22573391 40380.00025597 -33052.59092916 -39092601.99341546 -2158987.14684313 -2185724.59820023 687645.22573391
2.0100000000000016 51620.67165285 5490.93007782 -41364233.31837705 19984.18600739 -3095203.81322190 728040.78916304 40384.00086818 -32618.65308208 -41364233.31837705 -2174508.65204136 -2202770.55892599 728040.78916304
2.0400000000000014 51192.50380519 5741.38828372 -43192154.75761008 20901.13237745 -3091695.97947225 760499.81141343 40258.34117542 -32138.79199772 -43192154.75761008 -2171379.86001347 -2200938.52489057 760499.81141343
2.070000000000001 50736.67867469 5911.68723325 -44420800.42798481 21589.34787527 -3063176.62992777 782247.04379745 40056.44367664 -31696.05541487 -44420800.42798481 -2150726.99271007 -2181258.94127806 782247.04379745
2.100000000000001 50337.81814649 5989.65137544 -44960174.01907007 22004.88555961 -3012779.34328610 791679.06444991 39829.53566604 -31358.88945700 -44960174.01907007 -2114796.90005793 -2145916.50765479 791679.06444991
2.130000000000001 50059.11360206 5972.67518508 -44791570.72685214 22133.08995287 -2944782.35199927 788466.09390702 39620.45781340 -31173.81956301 -44791570.72685214 -2066625.11222287 -2097926.02821146 788466.09390702
2.1600000000000006 49937.60814135 5867.50517229 -43966095.20662761 21988.15955456 -2864205.88653275 773525.15233291 39460.17404896 -31162.26865701 -43966095.20662761 -2009751.42835489 -2040847.38180858 773525.15233291
2.1900000000000004 49984.77084668 5689.14477943 -42596416.44679648 21611.02255742 -2776512.11185761 748872.45909423 39367.40327443 -31321.73756906 -42596416.44679648 -1948009.24174237 -1978571.84293985 748872.45909423
2.22 50191.12968487 5459.01402587 -40842854.17056453 21064.99810258 -2687368.37385222 717374.62790780 39350.59399187 -31630.38231930 -40842854.17056453 -1885361.19769313 -1915151.60370119 717374.62790780
2.25 50533.34801140 5202.52241390 -38895415.55960712 20427.02649203 -2602428.11252975 682427.44166470 39411.21193306 -32053.73417678 -38895415.55960712 -1825750.47696830 -1854638.65487231 682427.44166470
2.28 50981.75233964 4946.38178882 -36953743.66775265 19779.67665143 -2527075.19195485 647597.10641224 39547.16290135 -32551.92269092 -36953743.66775265 -1772925.66130964 -1800898.34828947 647597.10641224
2.3099999999999996 51506.60358870 4715.97762432 -35207065.43902735 19202.18574265 -2466098.19842358 616263.72123404 39755.36843154 -33085.96891538 -35207065.43902735 -1730216.76342501 -1757372.75492948 616263.72123404
2.3399999999999994 52081.89972131 4532.93487103 -33816131.60211770 18763.04416070 -2423293.94281188 591298.01918135 40032.73345600 -33622.19548403 -33816131.60211770 -1700260.10400884 -1726795.05553232 591298.01918135
2.369999999999999 52686.44387349 4413.14495177 -32898844.72579782 18512.89408652 -2401042.17842561 574803.81958078 40375.50646130 -34134.37701780 -32898844.72579782 -1684702.61333171 -1710883.79922763 574803.81958078
2.399999999999999 53302.73254428 4365.50917077 -32520815.85324608 18481.56441200 -2399931.27243857 567949.53525675 40777.60477581 -34603.84249985 -32520815.85324608 -1683939.23760030 -1710076.11664563 567949.53525675
2.429999999999999 53914.53315696 4391.40671413 -32691534.00619792 18675.27108362 -2418515.13222216 570900.36309331 41228.52546631 -35018.13853328 -32691534.00619792 -1696943.03957283 -1723353.86122032 570900.36309331
2.4599999999999986 54504.55404813 4484.95386941 -33366241.03957078 19078.22931245 -2453290.81188349 582852.24505824 41711.88106735 -35369.19847861 -33366241.03957078 -1721248.22398561 -1748228.91462535 582852.24505824
2.4899999999999984 55052.94278180 4633.93911493 -34453036.76380062 19654.97309978 -2498923.90213740 602159.26856141 42204.99893706 -35651.61939352 -34453036.76380062 -1753107.87210763 -1780904.20163342 602159.26856141
2.5199999999999982 55537.48126545 4821.31155491 -35824253.09921121 20353.31198624 -2548737.96700004 626537.20900584 42680.11170751 -35861.74751813 -35824253.09921121 -1787837.93500827 -1816621.86485842 626537.20900584
2.549999999999998 55935.49714263 5027.10520976 -37330771.32846126 21110.87857325 -2595416.45796746 653319.63531038 43107.06952215 -35997.66915504 -37330771.32846126 -1820308.93203599 -1850164.22282790 653319.63531038
2.579999999999998 56227.14394814 5230.53378874 -38817736.54980007 21860.84930479 -2631831.70229326 679738.89899445 43457.14068373 -36060.04886123 -38817736.54980007 -1845528.08884738 -1876443.99841920 679738.89899445
2.6099999999999977 56399.33136118 5412.07708063 -40140063.97814606 22538.92126733 -2651890.05748957 703203.29264143 43707.26606390 -36053.43325586 -40140063.97814606 -1859232.01854331 -1891106.86668082 703203.29264143
2.6399999999999975 56449.37827907 5555.33787357 -41176227.93791370 23089.58252512 -2651274.31073713 721543.35192554 43843.95525708 -35987.52109271 -41176227.93791370 -1858407.24352965 -1891060.84428619 721543.35192554
2.6699999999999973 56387.50541527 5648.50015133 -41839060.08923437 23471.37161041 -2627976.34599167 733204.54692670 43866.08021387 -35877.89469279 -41839060.08923437 -1841663.12901907 -1874856.66107804 733204.54692670
2.699999999999997 56237.52309586 5685.27195620 -42082633.10929607 23661.21941215 -2582544.56983168 737369.90157209 43786.02829133 -35745.83958510 -42082633.10929607 -1809403.76934698 -1842865.78674196 737369.90157209
2.729999999999997 56035.36685535 5665.23145150 -41904731.93029873 23656.34284244 -2518009.31383277 734003.69434110 43628.91146604 -35617.06431335 -41904731.93029873 -1763773.90046008 -1797229.02134398 734003.69434110
