# Level force for level 11
# start: 0.0, 0.0, 48.61107222222222
# center: 0.0, 0.0, 50.92588518518518
# end: 0.0, 0.0, 53.24069814814815
# as part of FluidModelPart.Drag_structure
# Time Fx Fy Fz Mx My Mz Fx' Fy' Fz' Mx' My' Mz'
0.03 35932.60787365 5254.08050450 -0.36414661 56163.05558721 21308.55236634 -135618.02801928 29123.38664681 -21692.99473954 -0.36414661 54780.69933338 -24645.85558236 -135618.02801928
0.06 102688.91499025 15022.49798981 -0.89504930 160611.47298347 60928.48611054 -387956.64358330 83234.53834125 -61989.51794334 -0.89504930 156652.40737916 -70486.51598678 -387956.64358330
0.09 192896.68464949 28204.21603161 -1.49764816 301661.98520252 114436.39442234 -728779.14088788 156341.94619806 -116455.16137005 -1.49764816 294225.98587348 -132388.48485232 -728779.14088788
0.12 297515.84606801 43439.50476691 -2.02681467 464910.61979920 176382.49099127 -1123258.67659419 241091.84065721 -179659.10387307 -2.02681467 453462.70736816 -204020.19644315 -1123258.67659419
0.15 406583.21180049 59246.43456682 -2.24405204 634587.29833817 240794.01809346 -1533265.04923435 329391.30182405 -245604.19053741 -2.24405204 618988.06497281 -278453.89884673 -1533265.04923435
0.18 510009.24453214 74165.70646193 -1.83311759 794998.96400346 301711.43818318 -1920864.68792614 413074.06924723 -308187.92130578 -1.83311759 775491.36238400 -348806.95458226 -1920864.68792614
0.21 598404.87451730 86895.17229660 -0.49889788 931921.52302557 353710.66536159 -2251692.07162313 484580.31024957 -361691.97908297 -0.49889788 909079.23852026 -408856.81840989 -2251692.07162313
0.24 663905.87023225 96399.44775985 1.87265158 1033821.77613285 392370.63301527 -2497904.52099449 537617.04612441 -401287.63969715 1.87265158 1008470.32378542 -453574.45309830 -2497904.52099449
0.27 700929.92287917 101985.48916982 5.09449217 1092806.92843094 414647.74649053 -2640466.34443798 567746.93257903 -423517.67062982 5.09449217 1065931.42296833 -479530.95627398 -2640466.34443798
0.30000000000000004 706766.60610029 103340.85991323 8.64742661 1105222.13542096 419122.76048060 -2670582.41433498 572832.48270801 -426686.43707143 8.64742661 1077874.61275910 -485145.52058818 -2670582.41433498
0.33000000000000007 681895.56122171 100536.48879878 11.82611614 1071844.30558124 406093.06283374 -2590143.77023151 553263.00838717 -411082.94241457 11.82611614 1045059.53537523 -470757.21833013 -2590143.77023151
0.3600000000000001 629946.59483075 93998.63142607 13.96600555 997659.15649808 377497.54211272 -2411167.68081330 511906.57869383 -378972.43928657 13.96600555 972382.62678180 -438520.48296348 -2411167.68081330
0.3900000000000001 557269.20206739 84455.84022625 14.62396621 891248.32309934 336679.79575743 -2154323.91957411 453768.12906305 -334329.53439348 14.62396621 868276.29965326 -392139.16631610 -2154323.91957411
0.42000000000000015 472164.65031373 72866.54245749 13.73716123 763850.52986148 288014.30013979 -1846657.41049707 385395.25236672 -282346.39978011 13.73716123 743780.75418553 -336467.02477045 -1846657.41049707
0.4500000000000002 383881.32833092 60331.98092685 11.55358429 628200.08069773 236439.84319955 -1518826.08533209 314106.24326948 -228783.93759790 11.55358429 611392.75347238 -277016.32053422 -1518826.08533209
0.4800000000000002 301537.01814280 47999.67521253 8.54196886 497262.30928281 186953.32996166 -1202077.82450760 247159.76614508 -179277.97447001 8.54196886 483813.51830365 -219421.58354106 -1202077.82450760
0.5100000000000002 233122.77896215 36963.68577221 5.25614770 382998.14488222 144121.20621045 -925293.66154880 190979.97072037 -138705.42498602 5.25614770 372729.66765228 -168911.50320389 -925293.66154880
0.5400000000000003 184715.49085028 28169.58177273 2.21095167 295279.95227213 111659.51860369 -712379.58203537 150532.47846512 -110694.67387575 2.21095167 287749.65938876 -129839.25381137 -712379.58203537
0.5700000000000003 159974.01102236 22333.11657050 -0.20485578 241058.35403282 92121.45095614 -580246.09291079 128910.60617955 -97326.80983549 -0.20485578 235593.69946211 -105314.29413445 -580246.09291079
0.6000000000000003 159939.19950407 19880.91253130 -1.76741231 223847.76486091 86715.63344854 -537543.62668461 127152.02061393 -99036.16447982 -1.76741231 219601.48493295 -96967.06004025 -537543.62668461
0.6300000000000003 183117.51417533 20919.51633841 -2.41827212 243560.99825328 95262.74835797 -584234.69475606 144275.96788943 -114691.30416537 -2.41827212 239584.56885584 -104862.69813907 -584234.69475606
0.6600000000000004 225804.33423081 25235.61217827 -2.23807943 296687.71065609 116284.22391171 -711996.09867496 177512.04845456 -141823.50345727 -2.23807943 292015.25537262 -127564.52882665 -711996.09867496
0.6900000000000004 282591.70117537 32325.90641143 -1.41505761 376779.41425415 147205.94964555 -905366.02288051 222680.37583967 -176964.64057662 -1.41505761 370513.60405597 -162332.95360523 -905366.02288051
0.7200000000000004 347005.13657934 41452.18374976 -0.21861149 475179.72354769 184652.08872331 -1143488.99231478 274680.80540626 -216058.56495737 -0.21861149 466571.54889943 -205434.06070641 -1143488.99231478
0.7500000000000004 412210.80992005 51714.73068713 1.02096686 581921.13023519 224798.43312932 -1402269.75957897 328044.89572897 -254909.22221676 1.02096686 570436.87377090 -252523.88083918 -1402269.75957897
0.7800000000000005 471728.04333795 62136.71607648 1.93590225 686700.68825867 263751.20904434 -1656725.78192422 377499.39161847 -289624.80502178 1.93590225 672070.98177458 -299070.44485177 -1656725.78192422
0.8100000000000005 520075.73004888 71752.47062345 2.16048186 779844.78819661 297915.81075835 -1883323.81582015 418485.73399284 -317012.41690338 2.16048186 762091.82801673 -340775.24799689 -1883323.81582015
0.8400000000000005 553281.14472172 79693.25177571 1.39202083 853177.71239466 324321.35318210 -2062096.94881235 447580.48808079 -334877.21058997 1.39202083 832617.57411015 -373957.91787283 -2062096.94881235
0.8700000000000006 569192.39311548 85264.35132931 -0.53590145 900719.57841437 340871.66169022 -2178362.41727003 462770.80199018 -342188.79995333 -0.53590145 877937.58533977 -395872.25834881 -2178362.41727003
0.9000000000000006 567563.43688703 88007.46516852 -3.59255675 919155.51283413 346501.23810343 -2223895.92004127 463558.63039206 -339097.27956066 -3.59255675 894954.47124248 -404927.72093754 -2223895.92004127
0.9300000000000006 549916.39042266 87742.17454002 -7.52747339 908039.88238966 341225.25035080 -2197466.35968620 450892.69536679 -326806.52214019 -7.52747339 883363.84686069 -400798.46999044 -2197466.35968620
0.9600000000000006 519219.17343852 84580.89378763 -11.90373690 869723.85034950 326083.85249257 -2104692.98810825 426951.12201651 -307335.67490440 -11.90373690 845563.73567473 -384411.52900888 -2104692.98810825
0.9900000000000007 479443.70655204 78914.80631358 -16.18096674 809021.18732388 302992.03545596 -1957250.92710837 394819.09078052 -283216.70141981 -16.18096674 786312.09059674 -357816.64476388 -1957250.92710837
1.0200000000000007 435073.26164780 71370.44923098 -19.82534082 732651.79156588 274514.62167058 -1771517.47562857 358109.78225166 -257176.72499655 -19.82534082 712174.20058283 -323951.89954658 -1771517.47562857
1.0500000000000007 390623.23405175 62741.63129458 -22.41745213 648523.96753899 243592.09837765 -1566808.79251725 320577.37063812 -231847.30473591 -22.41745213 630821.31981512 -286330.07060253 -1566808.79251725
1.0800000000000007 350221.86482926 53904.42919246 -23.71994597 564930.97503114 213245.90345802 -1363397.88585279 285760.44295854 -209528.06812259 -23.71994597 550254.14774227 -248678.89895143 -1363397.88585279
1.1100000000000008 317279.64080599 45725.35690509 -23.71299750 489744.48913495 186291.71352368 -1180521.66714210 256683.29548611 -192017.87560658 -23.71299750 478029.78322752 -214573.51540461 -1180521.66714210
1.1400000000000008 294260.44071747 38973.53178134 -22.59213087 429682.90909265 165087.10526490 -1034578.42888351 235632.00167564 -180515.10445689 -22.59213087 420565.91039864 -187097.48716011 -1034578.42888351
1.1700000000000008 282556.39819293 34246.61687207 -20.75106079 389723.72884949 151335.19003923 -937684.07094503 224013.56025280 -175581.53020693 -20.75106079 382586.43056768 -168566.15234988 -937684.07094503
1.2000000000000008 282461.85184200 31917.77698951 -18.65839809 372712.38777055 145959.19928083 -896720.79813145 222299.96741367 -177161.41431431 -18.65839809 366756.19641282 -160338.71723675 -896720.79813145
1.2300000000000009 293235.93384951 32108.11419997 -16.79912349 379190.19029449 149056.02029576 -912927.69675867 230052.98259448 -184645.25203065 -16.79912349 373526.47764447 -162729.43218884 -912927.69675867
1.260000000000001 313242.31740550 34686.27207439 -15.62593941 407451.11222125 159928.26281419 -982055.27518244 246022.66498990 -196968.86859414 -15.62593941 401197.80359294 -175025.08531435 -982055.27518244
1.290000000000001 340147.63718846 39293.16034482 -15.47307015 453806.95354926 177187.50801303 -1095036.68588842 268305.16099461 -212736.24072647 -15.47307015 446180.46266186 -195599.48574673 -1095036.68588842
1.320000000000001 371161.56749373 45388.23838263 -16.51603563 513026.92889886 198915.84651280 -1239077.79056862 294545.19243712 -230356.53014418 -16.51603563 503419.56431036 -222110.07640103 -1239077.79056862
1.350000000000001 403297.42754140 52311.26035970 -18.75681090 578901.29567439 222867.99387916 -1399045.46232290 322163.99278237 -248184.69891685 -18.75681090 566936.50159043 -251753.56202764 -1399045.46232290
1.380000000000001 433633.68932909 59352.66199750 -22.03176412 644870.54161297 246693.85138224 -1559009.94230719 348593.99205545 -264656.65249563 -22.03176412 630431.22815138 -281553.43777256 -1559009.94230719
1.410000000000001 459557.66152882 65825.14258307 -26.04707607 704660.47385837 268161.00189591 -1703787.91219742 371501.74350632 -278410.93412020 -26.04707607 687888.66238976 -308651.73660901 -1703787.91219742
1.440000000000001 478974.57021596 71129.32799463 -30.43057445 752864.12455357 285357.45238260 -1820342.71182855 388982.19678186 -288390.13644937 -30.43057445 734133.51742576 -330577.13814204 -1820342.71182855
1.470000000000001 490467.41817357 74807.51510486 -34.78786218 785418.14557898 296857.07408878 -1898920.65123452 399709.73855596 -293915.93612723 -34.78786218 765284.14693723 -345464.84667449 -1898920.65123452
1.500000000000001 493395.47394071 76580.88944453 -38.75547764 799932.97297863 301833.91245888 -1933827.72181666 403034.15166575 -294732.41919471 -38.75547764 779066.83597964 -352209.22339616 -1933827.72181666
1.5300000000000011 487923.61540167 76367.69222909 -42.04331183 795850.73217707 300116.24335463 -1923788.64931041 399014.21019034 -291013.98411282 -42.04331183 774965.68035498 -350537.21871440 -1923788.64931041
1.5600000000000012 474978.81496179 74281.26574082 -44.45717868 774420.97796850 292176.81272444 -1871871.66579103 388385.52769989 -283335.95425898 -44.45717868 754198.53059757 -340998.11943172 -1871871.66579103
1.5900000000000012 456137.89375164 70609.88829929 -45.90908325 738503.15405953 279061.82859226 -1785002.79968168 372466.92866319 -272609.46699268 -45.90908325 719527.09953105 -324874.07679524 -1785002.79968168
1.6200000000000012 433457.38945941 65780.50695221 -46.41083782 692220.57537040 262267.25125709 -1673130.84853281 353014.50197796 -259986.81690637 -46.41083782 674924.81476830 -304022.91107422 -1673130.84853281
1.6500000000000012 409262.08921872 60311.10401974 -46.04969828 640505.28047310 243575.87167099 -1548137.04622277 332038.38920233 -246745.60793593 -46.04969828 625139.77780030 -280671.47661634 -1548137.04622277
1.6800000000000013 385914.30441005 54756.66688218 -44.97024317 588585.41791917 224872.94573144 -1422609.34259250 311601.43207280 -234163.81113768 -44.97024317 575201.92515026 -257183.55548607 -1422609.34259250
1.7100000000000013 365587.02130098 49654.14523913 -43.37927636 541464.13344062 207959.16140079 -1308601.71503488 293619.84468832 -223398.27906310 -43.37927636 529922.29376153 -235823.62728880 -1308601.71503488
1.7400000000000013 350064.00355130 45471.79001344 -41.50281008 503444.39728980 194379.74988851 -1216499.50410302 279686.04183163 -215379.21968924 -41.50281008 493436.18654550 -218541.70800248 -1216499.50410302
1.7700000000000014 340586.13694111 42567.38022305 -39.55154360 477745.73790262 185286.00443566 -1154098.78904429 270930.45022226 -210731.08379612 -39.55154360 468834.24114933 -206800.26075850 -1154098.78904429
1.8000000000000014 337758.40988417 41158.96882511 -37.73113515 466244.30659784 181341.76522265 -1125977.84065547 267935.04799476 -209727.47606901 -37.73113515 457912.50278623 -201456.51898368 -1125977.84065547
1.8300000000000014 341524.06145257 41310.15897825 -36.21046454 469357.65548367 182682.34859614 -1133202.84954212 270704.67333690 -212283.28624607 -36.21046454 461061.90848974 -202710.05349891 -1133202.84954212
1.8600000000000014 351206.19614857 42930.89551862 -35.14022319 486074.17268092 188926.35028290 -1173391.20493990 278697.01023502 -217983.55554776 -35.14022319 477297.44709218 -210115.24023246 -1173391.20493990
1.8900000000000015 365607.44020476 45792.54651719 -34.64348575 514120.05675391 199237.64097761 -1241098.48148668 290903.72039115 -226143.28005093 -34.64348575 504420.06547758 -222655.49147183 -1241098.48148668
1.9200000000000015 383153.87065279 49555.94574342 -34.80346258 550239.05302873 212428.48764250 -1328482.03687994 305972.04545975 -235889.35489318 -34.80346258 539287.38979950 -238868.14154107 -1328482.03687994
1.9500000000000015 402064.96866570 53808.98061237 -35.64942779 590552.99347462 227091.57807355 -1426165.54238224 322351.56090082 -246254.17074133 -35.64942779 578162.02114208 -257006.03152976 -1426165.54238224
1.9800000000000015 420530.36245896 58109.96334004 -37.14324838 630964.88492362 241746.60775764 -1524212.97871140 338449.82012182 -256269.92185732 -37.14324838 617100.21449435 -275218.88314581 -1524212.97871140
2.0100000000000016 436876.13481813 62032.38802418 -39.16834757 667564.31906741 254986.49823697 -1613114.19761222 352781.59969356 -265054.55524338 -39.16834757 652341.93890512 -291736.57487637 -1613114.19761222
2.0400000000000014 449706.89276932 65206.58041881 -41.53629816 696996.28443859 265609.29342290 -1684687.43665787 364098.80861564 -271882.77823140 -41.53629816 680664.93171386 -305036.66666286 -1684687.43665787
2.070000000000001 458014.20658039 67354.18380446 -44.00862413 716759.85468525 272723.91432810 -1732814.93221486 371491.55146219 -276238.35124335 -44.00862413 699670.68294336 -313980.82451709 -1732814.93221486
2.100000000000001 461245.96211382 68311.98899450 -46.32540773 725411.04643117 275820.96567695 -1753946.50866614 374454.01825995 -277846.27695125 -46.32540773 707977.94530270 -317908.19485552 -1753946.50866614
2.130000000000001 459334.83713285 68043.07935543 -48.24121945 722654.37741665 274803.57993753 -1747330.73269590 372912.50099689 -276685.05534682 -48.24121945 705309.28559362 -316678.33585729 -1747330.73269590
2.1600000000000006 452685.80545416 66634.32284296 -49.56261522 709318.53710748 269977.18363915 -1714961.21324618 367214.78432556 -272979.62124150 -49.56261522 692466.64492691 -310661.25029314 -1714961.21324618
2.1900000000000004 442125.43463654 64281.35347977 -50.17877642 687223.33937113 262001.07115926 -1661254.49230285 358083.67391594 -267176.11201716 -50.17877642 671203.01755384 -300677.54936414 -1661254.49230285
2.22 428817.03954447 61263.00544622 -50.07914795 658955.48545257 251808.11085407 -1592502.48510133 346538.92313712 -259899.94996334 -50.07914795 644007.11500627 -287896.66952090 -1592502.48510133
2.25 414147.69088106 57908.59861412 -49.35637112 627579.07342261 240501.67545298 -1516163.96537809 333794.20340380 -251899.07786569 -49.35637112 613825.78414743 -273705.05294837 -1516163.96537809
2.28 399595.81447521 54562.00050298 -48.19264484 596312.47958622 229240.76019536 -1440073.43658988 321138.07069994 -243975.74959842 -48.19264484 583754.29408008 -259558.90196308 -1440073.43658988
2.3099999999999996 386590.28100320 51546.43341177 -46.83314716 568205.13352868 219124.91290136 -1371650.62030764 309809.44184962 -236911.77662673 -46.83314716 556726.41486260 -246836.99118367 -1371650.62030764
2.3399999999999994 376373.66020006 49133.66906139 -45.54969909 545846.39075227 211090.13436882 -1317190.03360225 300879.11796535 -231393.61680958 -45.54969909 535234.94984090 -236708.41893336 -1317190.03360225
2.369999999999999 369883.13254092 47520.40239031 -44.60182639 531133.83730878 205825.37385409 -1281297.63775490 295148.87004111 -227944.87249130 -44.60182639 521108.85567116 -230027.82048618 -1281297.63775490
2.399999999999999 367661.78448027 46813.70689060 -44.20240946 525121.18203230 203716.82808452 -1266523.15324524 293078.43058397 -226873.85139432 -44.20240946 515366.29934011 -227267.19817935 -1266523.15324524
2.429999999999999 369810.17404135 47026.15829888 -44.49292465 527956.73074619 204824.20748597 -1273214.13641686 294747.79724271 -228242.76639013 -44.49292465 518154.37054820 -228489.19841921 -1273214.13641686
2.4599999999999986 375984.45544916 48080.59983840 -45.53080021 538914.01822081 208889.93050542 -1299594.29666996 299859.27625808 -231863.03987959 -45.53080021 528777.24314239 -233362.27037845 -1299594.29666996
2.4899999999999984 385441.39302670 49823.00392217 -47.29139470 556506.85971359 215378.91906403 -1342046.41652817 307778.40669162 -237318.03882672 -47.29139470 545805.66847511 -241213.88008551 -1342046.41652817
2.5199999999999982 397125.33303086 52041.85797804 -49.68049453 578673.24538489 223543.80666232 -1395561.29137649 317609.16664890 -244010.86528527 -49.68049453 567253.11748607 -251114.43431970 -1395561.29137649
2.549999999999998 409787.48705689 54491.75729516 -52.55397660 603006.66949366 232508.14957143 -1454299.96510014 328295.00204550 -251232.01984114 -52.55397660 590798.19434278 -261982.01585659 -1454299.96510014
2.579999999999998 422123.55796053 56918.69223618 -55.74088806 627009.80708792 241358.73125939 -1512208.65278811 338734.02358896 -258238.83707601 -55.74088806 614029.28203443 -272696.49089024 -1512208.65278811
2.6099999999999977 432913.87466441 59084.67398487 -59.06552015 648344.67239611 249237.50210622 -1563623.91593760 347895.51008384 -264337.16280605 -59.06552015 634686.44226276 -282211.38653215 -1563623.91593760
2.6399999999999975 441150.21286964 60789.46594925 -62.36618905 665054.82673782 255424.06222501 -1603809.32843744 354924.95063943 -268955.66344459 -62.36618905 650876.86432468 -289652.69136963 -1603809.32843744
2.6699999999999973 446135.25596409 61887.60679516 -65.50894086 675739.13167858 259400.85986784 -1629374.55197029 359226.41125487 -271704.11838234 -65.50894086 661243.82938120 -294395.61526487 -1629374.55197029
2.699999999999997 447544.31716859 62299.42248043 -68.39600232 679662.20732692 260895.26831108 -1638541.33690346 360513.96565133 -272409.27745150 -68.39600232 665074.56911933 -296112.94231483 -1638541.33690346
2.729999999999997 445443.72824131 62015.33799251 -70.96903175 676793.58679274 259895.23609661 -1631237.38616866 358827.74690853 -271124.81484437 -70.96903175 662339.01852670 -294791.65084272 -1631237.38616866
2.7599999999999967 440265.31126061 61093.18425413 -73.20901837 667775.07715637 256637.99048535 -1609017.11916929 354513.99198396 -268115.18224321 -73.20901837 653658.74874692 -290717.82198236 -1609017.11916929
2.7899999999999965 432742.08430655 59649.43882774 -75.13285251 653823.00139929 251574.10646026 -1574825.54446486 348173.38500703 -263816.33962890 -75.13285251 640212.43463418 -284432.92133618 -1574825.54446486
2.8199999999999963 423814.44397737 57845.17428075 -76.78711066 636578.21629232 245311.67425494 -1532636.02878218 340584.78229404 -258779.35230836 -76.78711066 623590.32186583 -276667.22512604 -1532636.02878218
2.849999999999996 414518.78487533 55868.28651688 -78.23779267 617921.36562597 238547.17426249 -1487003.70983491 332613.88796391 -253604.19946520 -78.23779267 605614.71242808 -268258.06332028 -1487003.70983491
