# Level force for level 45
# start: 0.0, 0.0, 206.0183537037037
# center: 0.0, 0.0, 208.33316666666667
# end: 0.0, 0.0, 210.64797962962962
# as part of FluidModelPart.Drag_structure
# Time Fx Fy Fz Mx My Mz Fx' Fy' Fz' Mx' My' Mz'
0.03 -594.55147471 12054.36891660 -0.49412663 4824.13587981 5468.38103955 131636.10956141 8103.31462432 8944.13738338 -0.49412663 7277.90850916 455.55012120 131636.10956141
0.06 -1755.93016164 34470.21610817 -1.29236953 13789.56170953 15569.19160365 376444.72695633 23132.49343447 25615.75368364 -1.29236953 20759.77355494 1258.38836613 376444.72695633
0.09 -3282.42035990 64738.00737664 -2.40643035 25883.57348300 29196.99072111 707026.19357148 43455.66232133 48097.70571172 -2.40643035 38947.84046031 2342.93979796 707026.19357148
0.12 -4885.86643638 99763.26395864 -3.83848874 39853.59093595 44996.52748875 1089589.14933403 67088.45116932 73998.10974759 -3.83848874 59998.09412259 3636.60531170 1089589.14933403
0.15 -6294.22662187 136160.63396974 -5.61749564 54335.73652802 61471.88404181 1487160.65564156 91829.41728402 100730.79793731 -5.61749564 81888.35381801 5046.01829854 1487160.65564156
0.18 -7357.74574582 170566.69236080 -7.82380022 67991.63890627 77103.98164588 1863001.77821900 115406.15290176 125811.57672400 -7.82380022 102598.09721289 6443.39934368 1863001.77821900
0.21 -8110.87786414 199939.61350913 -10.57958083 79634.38594653 90474.34170893 2183880.81599928 135643.39980101 147113.91327923 -10.57958083 120285.03486420 7665.00622736 2183880.81599928
0.24 -8759.22006120 221819.21911953 -13.98679130 88328.58303744 100390.46588266 2422915.38730056 150656.17013375 163043.57794011 -13.98679130 133444.51923048 8529.03915373 2422915.38730056
0.27 -9590.91360403 234526.03279461 -18.03868477 93455.72775633 106002.58842710 2561749.86116546 159053.14810667 172616.74820103 -18.03868477 141038.32793735 8871.97026291 2561749.86116546
0.30000000000000004 -10843.95050214 237283.74764699 -22.52129394 94742.87762345 106895.75170901 2591896.48284523 160117.11609163 175452.77796146 -22.52129394 142580.04215014 8593.37967680 2591896.48284523
0.33000000000000007 -12576.64345988 230256.38760539 -26.99838528 92258.87461934 103140.75803791 2515142.89255349 153922.82321224 171708.88296233 -26.99838528 138168.40529330 7694.65355736 2515142.89255349
0.3600000000000001 -14591.39613928 214498.69205655 -30.88368148 86385.31224397 95290.11178487 2343010.80402772 141355.80455177 161991.15486590 -30.88368148 128463.92430573 6296.64414048 2343010.80402772
0.3900000000000001 -16444.28171901 191826.30088225 -33.52603191 77768.14035162 84312.74029468 2095337.04594838 124013.81504851 147269.54127903 -33.52603191 114608.48980569 4627.73099988 2095337.04594838
0.42000000000000015 -17537.15699354 164619.65732656 -34.40394531 67256.87816198 71476.88828270 1798128.61449469 104003.03337935 128804.31864508 -34.40394531 98099.58703258 2983.99777304 1798128.61449469
0.4500000000000002 -17271.23324906 135581.43346951 -33.18889191 55831.07156790 58194.14392869 1480912.44263387 83657.94485942 108083.15715915 -33.18889191 80628.00310390 1670.94449075 1480912.44263387
0.4800000000000002 -15210.72643828 107472.18472032 -29.81571619 44519.07733804 45852.25356788 1173846.49255555 65238.70279339 86749.91841596 -29.81571619 63902.18090842 942.69795264 1173846.49255555
0.5100000000000002 -11211.25553443 82850.34682096 -24.50206722 34312.21953840 35660.90977081 904878.56453264 50656.48724675 66511.59687477 -24.50206722 49478.47423538 953.66800906 904878.56453264
0.5400000000000003 -5480.28533604 63841.72460842 -17.72968324 26080.53035836 28531.09059333 697227.50852889 41267.76946931 49018.06331721 -17.72968324 38616.24750653 1732.80775985 697227.50852889
0.5700000000000003 1439.81228189 51959.65727127 -10.19907673 20497.81966041 24999.68198087 567419.07969287 37759.12703281 35722.92497649 -10.19907673 32171.59193759 3183.29737477 567419.07969287
0.6000000000000003 8753.74488012 47991.09449821 -2.74808551 17984.28503990 25202.24610858 524041.81623648 40124.66072175 27744.99599074 -2.74808551 30537.48903101 5103.86921801 524041.81623648
0.6300000000000003 15535.01898016 51956.03184189 3.73731631 18673.31778733 28889.59989144 567306.09128899 47723.37970568 25753.54517221 3.73731631 33632.06162368 7224.00235434 567306.09128899
0.6600000000000004 20861.18558423 63140.42204741 8.41995524 22406.17519137 35481.10013049 689403.89516711 59398.10638690 29895.93480651 8.41995524 40932.48492450 9245.36808796 689403.89516711
0.6900000000000004 23940.16929994 80195.01232059 10.59745925 28754.29182297 44144.64685499 875590.64735916 73634.69308397 39778.18097449 10.59745925 51547.33388049 10882.62440802 875590.64735916
0.7200000000000004 24216.42712900 101287.64725016 9.79513925 37065.50418898 53895.38933613 1105851.97738425 88744.78206004 54497.58238199 9.79513925 64319.06463439 11900.52591414 1105851.97738425
0.7500000000000004 21451.23573573 124292.05023875 5.82296389 46528.61203696 63703.87862898 1356966.15770758 103056.06582497 72719.43731783 5.82296389 77946.14165697 12144.74747590 1356966.15770758
0.7800000000000005 15772.83011197 146994.75569072 -1.17660173 56248.97095348 72603.93309191 1604763.31589661 115094.06367844 92787.91341709 -1.17660173 91112.76222607 11564.70463414 1604763.31589661
0.8100000000000005 7689.74111831 167301.26126755 -10.70635409 65328.66635926 79789.26574299 1826376.89966155 123737.32443368 112862.38825302 -10.70635409 102613.87386127 10225.18788426 1826376.89966155
0.8400000000000005 -1941.74224105 183423.60617391 -21.93990913 72945.73167732 84687.93679901 2002292.07649209 128327.05664930 131073.09486122 -21.93990913 111463.83592293 8302.99286763 2002292.07649209
0.8700000000000006 -12002.51501646 194033.78542160 -33.79579514 78427.06029135 87005.84862204 2118019.61160565 128715.54569148 145689.66521034 -33.79579514 116978.73172408 6066.11940299 2118019.61160565
0.9000000000000006 -21246.00812555 198370.25452192 -45.07080512 81309.48680879 86734.61620543 2165257.52294830 125245.75573943 155292.14857688 -45.07080512 118825.12477976 3836.14578518 2165257.52294830
0.9300000000000006 -28468.05200920 196289.10881318 -54.60410971 81383.24703734 84125.64489721 2142446.77324593 118667.40729198 158927.31253774 -54.60410971 117032.45983359 1939.16812343 2142446.77324593
0.9600000000000006 -32685.11693301 188255.91832260 -61.43420194 78712.15076016 79636.31216581 2054680.54064996 110005.16861720 156228.90427162 -61.43420194 111969.27192542 653.48079685 2054680.54064996
0.9900000000000007 -33285.62281906 175280.10920784 -64.95835479 73626.57830853 73861.06052375 1912985.51976488 100405.26421661 147478.24343936 -64.95835479 104289.50955950 165.80396445 1912985.51976488
1.0200000000000007 -30126.06400901 158799.07669317 -65.00475248 66687.94573181 67456.62360065 1733055.39189643 90985.55982468 133590.24812713 -65.00475248 94854.53463433 543.53733360 1733055.39189643
1.0500000000000007 -23552.94042491 140524.51654304 -61.85514412 58628.00962024 61072.89095048 1533572.82054783 82711.39467921 116020.28246188 -61.85514412 84641.31850769 1728.79216781 1533572.82054783
1.0800000000000007 -14348.60956474 122267.32579282 -56.19279743 50269.81840588 55295.25279328 1334298.53949556 76310.05606182 96602.05430948 -56.19279743 74645.77770136 3553.51873374 1334298.53949556
1.1100000000000008 -3613.91270138 105759.40035723 -48.99615270 42440.14522698 50601.68901796 1154127.30605047 72227.76698906 77338.61134458 -48.99615270 65790.51192863 5771.08295956 1154127.30605047
1.1400000000000008 7389.02776333 92490.36505516 -41.39161956 35884.14473054 47335.00838049 1009308.89291717 70625.39596275 60175.73268709 -41.39161956 58844.82748942 8096.98333732 1009308.89291717
1.1700000000000008 17406.08076227 83574.99064480 -34.49162582 31191.83275924 45689.04999915 912003.43312666 71404.40036342 46788.48488166 -34.49162582 54362.99354206 10251.08061867 912003.43312666
1.2000000000000008 25347.65315772 79663.14494685 -29.28888747 28743.92999433 45707.16511674 869301.20886308 74253.84743755 38406.85256758 -29.28888747 52644.87421980 11994.81858592 869301.20886308
1.2300000000000009 30411.73172270 80898.89045627 -26.57144386 28681.41269321 47291.14567052 882770.63622663 78708.49576084 35699.81230335 -26.57144386 53720.71120308 13159.06838433 882770.63622663
1.260000000000001 32162.61560414 86930.10182627 -26.82728264 30904.56319124 50219.80052749 948563.01555754 84211.26808498 38726.46089620 -26.82728264 57363.58770496 13657.93530069 948563.01555754
1.290000000000001 30558.72489854 96964.85470013 -30.20886384 35094.01709746 54174.03167455 1058031.73734132 90172.78789541 46956.22469506 -30.20886384 63122.04262998 13491.60769260 1058031.73734132
1.320000000000001 25933.14988365 109866.84597646 -36.54590879 40752.40818524 58767.59266145 1198772.64536676 96025.09795778 59350.08567728 -36.54590879 70371.26746239 12738.65910746 1198772.64536676
1.350000000000001 18932.79975684 124278.93419815 -45.39059596 47262.39308651 63580.68671169 1355973.53675063 101265.98822505 74490.96603524 -45.39059596 78377.89337291 11538.77607976 1355973.53675063
1.380000000000001 10427.36878623 138761.83260035 -56.06947847 53952.05036203 68194.78342680 1513928.54872151 105492.69598026 90746.16962290 -56.06947847 86370.85447255 10071.13313273 1513928.54872151
1.410000000000001 1400.66875333 151934.36632557 -67.80328901 60163.91829439 72225.86908655 1657568.11068917 108424.24309777 106443.39835042 -67.80328901 93613.71641691 8529.08719948 1657568.11068917
1.440000000000001 -7162.09966492 162602.19150085 -79.78190050 65318.43234714 75354.69993895 1773863.32658094 109912.74300544 120041.48148665 -79.78190050 99470.92577024 7096.71287198 1773863.32658094
1.470000000000001 -14378.30721424 169863.48753207 -91.24176216 68965.71078771 77351.91537156 1852978.12392424 109944.62537675 130278.62244310 -91.24176216 103462.18566434 5929.94212966 1852978.12392424
1.500000000000001 -19553.40349406 173182.37333692 -101.52937746 70822.41367461 78095.77476317 1889070.30682988 108632.08636259 136284.77477445 -101.52937746 105301.06088637 5143.04294774 1889070.30682988
1.5300000000000011 -22239.93610600 172424.49158725 -110.14444437 70790.71391308 77581.22746021 1880678.64480614 106196.51761028 137648.53687770 -110.14444437 104914.80588287 4801.61817692 1880678.64480614
1.5600000000000012 -22267.81179107 167852.56781703 -116.76867361 68958.66163764 75918.44957798 1830674.49312307 102943.96822335 134435.40966265 -116.76867361 102443.58777928 4921.31324823 1830674.49312307
1.5900000000000012 -19744.14974538 160083.72671812 -121.26562172 65582.12224670 73320.94479841 1745795.01087451 99235.06654628 127157.51089372 -121.26562172 98219.30063521 5472.17390471 1745795.01087451
1.6200000000000012 -15026.36269779 150014.50061769 -123.68987443 61052.57960524 70083.64533321 1635823.26500040 95451.02770290 116701.51362325 -123.68987443 92727.31391318 6385.92781759 1635823.26500040
1.6500000000000012 -8672.82518120 138721.72805272 -124.30010561 55853.22457870 66552.86625277 1512506.93293915 91958.46110633 104223.68810167 -124.30010561 86554.17688547 7565.78918400 1512506.93293915
1.6800000000000013 -1377.52517584 127350.27334532 -123.52634837 50508.81821068 63091.32675344 1388332.88422734 89076.18447535 91024.29926153 -123.52634837 80327.43284790 8897.17711492 1388332.88422734
1.7100000000000013 6104.34616272 116999.15710806 -121.92330383 45533.69389013 60042.01191852 1275285.54270739 87047.32195059 78414.47281785 -121.92330383 74653.29750585 10258.93006148 1275285.54270739
1.7400000000000013 13032.68349901 108617.37390738 -120.13970276 41383.62186802 57694.74140500 1183710.93498461 86019.58052379 67588.58276537 -120.13970276 70058.98253922 11533.70323335 1183710.93498461
1.7700000000000014 18753.72125449 102919.12226037 -118.85474943 38414.94367847 56259.10684068 1121394.13768804 86035.69273561 59513.92579254 -118.85474943 66944.66312449 12617.72877660 1121394.13768804
1.8000000000000014 22760.81503250 100325.94441150 -118.70032421 36854.80139516 55846.86448879 1092928.64883546 87035.48227713 54846.82896751 -118.70032421 65549.97657382 13429.41660223 1092928.64883546
1.8300000000000014 24739.11345687 100939.85757795 -120.19835444 36784.90575260 56465.05830768 1099424.86772396 88868.45267127 53882.06289948 -120.19835444 65937.68193243 13915.96932649 1099424.86772396
1.8600000000000014 24591.58989898 104548.68606698 -123.70610100 38139.55650661 58020.61732630 1138568.78332826 91315.96485984 56538.20490437 -123.70610100 67995.51099733 14058.03292279 1138568.78332826
1.8900000000000015 22442.61687072 110661.34840688 -129.37245369 40717.73063152 60334.72782448 1205007.27034994 94118.71645061 62380.06329689 -129.37245369 71454.87862981 13871.31174166 1205007.27034994
1.9200000000000015 18619.43171065 118568.26423634 -137.12840316 44207.62671389 63164.99574223 1291006.78984476 97006.35009947 70674.49725060 -137.12840316 75923.90945250 13404.88419340 1291006.78984476
1.9500000000000015 13612.35218072 127420.03514786 -146.69969228 48221.15254796 66232.51957310 1387310.17042855 99724.95744696 80474.18437719 -146.69969228 80930.96768850 12735.95976192 1387310.17042855
1.9800000000000015 8017.44643649 136315.99323600 -157.64458777 52334.77504295 69250.48696484 1484100.81486887 102059.15394440 90720.77245832 -157.64458777 85973.76325805 11961.21460857 1484100.81486887
2.0100000000000016 2467.75794156 144393.74794407 -169.41116201 56132.68835673 71951.42780727 1571977.80834947 103846.76670700 100356.82995739 -169.41116201 90569.14710186 11185.53793530 1571977.80834947
2.0400000000000014 -2438.80641020 150911.10141208 -181.40255769 59247.95667485 74110.72345423 1642848.16932307 104985.76661416 108434.75971546 -181.40255769 94298.82704936 10509.56317689 1642848.16932307
2.070000000000001 -6205.61018062 155312.77495080 -193.03894296 61397.44452795 75564.77374866 1690653.66887257 105434.68733249 114210.74541273 -193.03894296 96846.91330975 10017.81456327 1690653.66887257
2.100000000000001 -8489.13022329 157275.95600633 -203.81460548 62407.01963129 76222.64888819 1711868.21951719 105208.17346241 117213.61655694 -203.81460548 98025.97868377 9769.12513391 1711868.21951719
2.130000000000001 -9129.21129466 156731.19927477 -213.33667230 62224.50061002 76071.11283062 1705726.08623020 104370.36661735 117281.02104403 -213.33667230 97789.76607223 9791.03339765 1705726.08623020
2.1600000000000006 -8155.23482126 153857.36322340 -221.35323653 60919.39702138 75172.69568661 1674169.07876234 103026.96302647 114560.20671503 -221.35323653 96231.64161969 10078.60414046 1674169.07876234
2.1900000000000004 -5767.77524706 149052.35262446 -227.76624243 58669.82075565 73657.53359115 1621529.08610644 101317.49630301 109474.36228212 -227.76624243 93569.56959510 10597.91338046 1621529.08610644
2.22 -2300.70943371 142883.55346220 -232.63150555 55738.66384701 71709.66861110 1553988.84131305 99407.08233103 102660.77681527 -232.63150555 90119.58013205 11293.20577105 1553988.84131305
2.25 1829.14146299 136023.75266184 -236.15030540 52442.12435474 69548.57539053 1478884.44784899 97476.71624185 94889.91957740 -236.15030540 86260.45103157 12096.08752945 1478884.44784899
2.28 6176.76441905 129179.74314645 -238.65123514 49114.54601798 67407.73948081 1403926.95444867 95711.50437730 86976.24036429 -238.65123514 82393.69823556 12935.24114712 1403926.95444867
2.3099999999999996 10319.93381215 123021.07842020 -240.56551544 46073.60092520 65511.89614688 1336424.97760534 94286.33395977 79691.74359984 -240.56551544 78902.86166174 13744.95036595 1336424.97760534
2.3399999999999994 13900.41151494 118116.14879046 -242.39066684 43589.51267254 64055.15697792 1282586.18827012 93349.80502087 73691.65453388 -242.39066684 76116.27586843 14471.39586969 1282586.18827012
2.369999999999999 16651.63505800 114881.51771058 -244.64791168 41861.24485237 63182.14506748 1246963.33569805 93007.98427351 69459.01613880 -244.64791168 74276.89333115 15076.15312311 1246963.33569805
2.399999999999999 18412.37061071 113548.92759977 -247.83044121 41001.49612709 62974.34282761 1232092.21226894 93310.72881881 67271.70458571 -247.83044121 73522.02080443 15537.14890391 1232092.21226894
2.429999999999999 19127.28534485 114152.12051134 -252.35391380 41031.31329572 63443.01454509 1238346.97112348 94242.77167342 67192.70532736 -252.35391380 73874.50567614 15847.46593136 1238346.97112348
2.4599999999999986 18837.94501403 116533.84947768 -258.50985777 41884.00397301 64529.79415951 1264015.10455865 95722.31386648 69081.43654041 -258.50985777 75245.91827132 16012.99180620 1264015.10455865
2.4899999999999984 17666.82395050 120371.12627817 -266.42909807 43417.19384451 66114.70472645 1305572.81186768 97607.57066778 72622.90863293 -266.42909807 77450.74823577 16049.56386068 1305572.81186768
2.5199999999999982 15797.90679434 125215.30774356 -276.06150126 45431.20856750 68030.58376750 1358122.89614080 99711.40023666 77369.78619100 -276.06150126 80229.60276566 15980.17145450 1358122.89614080
2.549999999999998 13456.30289687 130542.39454029 -287.17707242 47691.66414141 70082.47233539 1415944.11270357 101822.45543985 82792.36938369 -287.17707242 83278.89055113 15832.69231021 1415944.11270357
2.579999999999998 10888.16971751 135808.07667893 -299.39074316 49953.72700042 72069.33396788 1473092.90534539 103729.91060153 88331.71331761 -299.39074316 86283.33387183 15638.09565675 1473092.90534539
2.6099999999999977 8341.93176980 140501.99068808 -312.20722147 51985.81648150 73805.74489862 1523996.47753297 105248.54690837 93451.27386313 -312.20722147 88948.06606793 15429.01934875 1523996.47753297
2.6399999999999975 6051.03305944 144195.95109707 -325.08067230 53590.70764361 75140.99189434 1563979.92356413 106240.66134989 97683.20833087 -325.08067230 91027.05769695 15238.35213018 1563979.92356413
2.6699999999999973 4218.39422371 146581.76752747 -337.48061748 54622.28607638 75973.53400560 1589679.39183887 106631.81697829 100666.10665568 -337.48061748 92345.18997459 15097.61219755 1589679.39183887
2.699999999999997 3002.93826120 147495.47959908 -348.95430281 54996.66531439 76259.42644937 1599306.42495185 106418.45182685 102171.65581089 -348.95430281 92812.07255820 15035.04258529 1599306.42495185
2.729999999999997 2508.64957607 146926.25092611 -359.18059901 54696.94952376 76014.02346380 1592744.56883780 105666.43149103 102118.66523731 -359.18059901 92426.61537499 15073.44753806 1592744.56883780
2.7599999999999967 2776.80868593 145009.70895168 -368.00360658 53771.54964264 75307.09721991 1571476.70559609 104500.84878950 100573.84828574 -368.00360658 91272.38650289 15227.93172845 1571476.70559609
2.7899999999999965 3782.84428526 142007.21292091 -375.44549163 52326.37657725 74252.38246365 1538358.01868157 103089.13808006 97739.38838750 -375.44549163 89504.69887200 15504.02744661 1538358.01868157
2.8199999999999963 5438.27720449 138273.72154645 -381.69674543 50511.97951246 72993.13452984 1497264.52287932 101619.72885466 93928.84347613 -381.69674543 87331.30365053 15896.57716169 1497264.52287932
2.849999999999996 7598.17066176 134217.93215670 -387.08473914 48506.94596460 71685.29214938 1452657.84013676 100279.12798438 89533.69198530 -387.08473914 84988.74661638 16389.56576395 1452657.84013676
2.879999999999996 10074.13580882 130259.09261901 -392.02932297 46499.34267682 70480.51908373 1409113.65976028 99230.57744712 84983.59795710 -392.02932297 82717.25351315 16957.25245816 1409113.65976028
2.9099999999999957 12651.82608622 126784.93578309 -396.99043708 44667.99924206 69510.79212282 1370862.60232327 98596.67986448 80704.29582456 -396.99043708 80736.59764179 17566.50730960 1370862.60232327
2.9399999999999955 15111.40070428 124114.87078018 -402.41488330 43165.52967293 68876.11821841 1341388.76522881 98447.84068598 77077.09286354 -402.41488330 79225.40899928 18180.13150881 1341388.76522881
2.9699999999999953 17248.85226753 122471.85843564 -408.68822456 42104.65443833 68636.39809343 1323123.06230575 98797.46201042 74403.90119830 -408.68822456 78305.74920094 18760.77585522 1323123.06230575
