# Level force for level 10
# start: 0.0, 0.0, 43.9814462962963
# center: 0.0, 0.0, 46.29625925925926
# end: 0.0, 0.0, 48.61107222222222
# as part of FluidModelPart.Drag_structure
# Time Fx Fy Fz Mx My Mz Fx' Fy' Fz' Mx' My' Mz'
0.03 -1158.08474204 -16625.53575570 -0.31817974 3602.68040632 2880.90127488 36299.04764946 -12574.91864800 -10937.13949943 -0.31817974 4584.58457315 -510.37491836 36299.04764946
0.06 -3379.57269825 -47543.57042946 -0.73449183 10301.44002130 8227.58033600 103820.44345227 -36008.09982494 -31228.66228004 -0.73449183 13101.99594339 -1466.44024670 103820.44345227
0.09 -6323.00423796 -89295.30096233 -1.11304966 19341.81433989 15456.24544912 195004.00659987 -67612.35201269 -58670.27366442 -1.11304966 24605.94404894 -2747.51211143 195004.00659987
0.12 -9520.41537856 -137616.43631119 -1.25589290 29791.22300816 23852.36265427 300520.95883588 -104041.46559226 -90577.56504448 -1.25589290 37931.74318907 -4199.40842876 300520.95883588
0.15 -12527.26105114 -187840.11970707 -0.86868346 40629.74127708 32621.88161590 410161.19456196 -141681.13366271 -123964.91118481 -0.86868346 51796.71928055 -5662.41186921 410161.19456196
0.18 -15077.54433473 -235325.57106780 0.40980286 50848.00404501 40946.58632692 513778.52754392 -177061.74093137 -155738.87324591 0.40980286 64908.57732824 -7001.35961182 513778.52754392
0.21 -17173.68463595 -275869.99536425 2.89886660 59541.37929673 48047.26294829 602197.68771925 -207213.17331200 -182925.91558392 2.89886660 76076.65851011 -8127.56761373 602197.68771925
0.24 -19065.72316877 -306068.19737257 6.69732743 65990.64716106 53255.24277140 668002.48249865 -229904.40000855 -202941.39572683 6.69732743 84319.57739987 -9005.29080508 668002.48249865
0.27 -21118.93578759 -323590.34851055 11.56348078 69719.43607782 56085.95956001 706134.33162423 -243746.27246517 -213879.58705147 11.56348078 88957.84836537 -9640.32369689 706134.33162423
0.30000000000000004 -23618.00573812 -327355.54695363 16.83584469 70524.61824003 56302.75165397 714259.85992212 -248175.77912547 -214774.87509441 16.83584469 89680.49329210 -10056.37830414 714259.85992212
0.33000000000000007 -26579.49288275 -317587.22555418 21.59567599 68475.62214867 53955.55774399 692875.75193385 -243362.62046547 -205773.54114970 21.59567599 86571.91753077 -10267.23600382 692875.75193385
0.3600000000000001 -29648.72973795 -295747.23354577 24.95927502 63888.63240421 49382.85777619 645158.65761774 -230089.69220865 -188160.05650611 24.95927502 80095.03882167 -10257.13160583 645158.65761774
0.3900000000000001 -32129.32106916 -264356.64025952 26.25687533 57284.65869054 43171.74458754 576580.18403414 -209647.23378212 -164209.51217628 26.25687533 71033.40397154 -9979.33726453 576580.18403414
0.42000000000000015 -33135.25309943 -226721.99266822 25.37518645 49332.46238679 36080.11330746 494323.82720458 -183746.82062277 -136886.49629689 25.37518645 60395.81147202 -9370.82590065 494323.82720458
0.4500000000000002 -31828.86644218 -186595.79786049 22.61785850 40790.28844963 28935.37766567 406561.07949151 -154449.56130682 -109436.74670932 22.61785850 49303.49133288 -8382.68780570 406561.07949151
0.4800000000000002 -27662.97455525 -147806.20856926 18.59825546 32440.64394100 22526.87729292 321652.02810936 -124075.44927660 -84954.09548498 18.59825546 38867.90700952 -7010.09162396 321652.02810936
0.5100000000000002 -20558.75705950 -113893.60753749 14.04961663 25024.05925916 17510.95743337 247353.21164322 -95072.17875309 -65997.70569402 14.04961663 30076.79874117 -5312.56524877 247353.21164322
0.5400000000000003 -10974.10048551 -87789.90181717 9.65787325 19175.63456508 14342.29520738 190111.70674625 -69836.69576534 -54316.97402389 9.65787325 23700.75543344 -3417.68703561 190111.70674625
0.5700000000000003 145.74102486 -71570.15019294 5.95564957 15370.26751391 13237.96052334 154513.13527356 -50504.68406500 -50710.79299894 5.95564957 20229.07204287 -1507.76873260 154513.13527356
0.6000000000000003 11509.99693549 -66297.46459195 3.28278105 13882.88236232 14173.54351713 142931.67362946 -38740.58990392 -55018.18367297 3.28278105 19838.88899522 205.52847359 142931.67362946
0.6300000000000003 21676.12170886 -71970.74598225 1.79537194 14768.18278089 16906.32702761 155405.03550163 -35563.66988094 -66218.33518126 1.79537194 22397.26067635 1511.89629601 155405.03550163
0.6600000000000004 29255.26382666 -87574.15712914 1.49604936 17862.08706696 21018.51394781 189733.73307826 -41237.68492548 -82610.87579995 1.49604936 27492.73663415 2231.93085177 189733.73307826
0.6900000000000004 33099.26829348 -111217.86462640 2.26749711 22804.01305587 25974.12456203 241782.19298119 -55238.18920378 -102047.62332905 2.26749711 34491.35188326 2241.60734312 241782.19298119
0.7200000000000004 32454.80907332 -140351.81033656 3.88981674 29076.90820928 31183.76578796 305943.42714763 -76294.70126293 -122192.73241865 3.88981674 42610.73122232 1489.77328088 305943.42714763
0.7500000000000004 27078.01566507 -172029.30344592 6.04601632 36059.92907289 36072.04309339 375716.77822507 -102496.03853156 -140790.13552725 6.04601632 51005.00665914 8.56590605 375716.77822507
0.7800000000000005 17302.24729209 -203194.71633631 8.32804347 43088.10597897 40141.38755142 444342.82487185 -131445.82543268 -155914.89821268 8.32804347 58852.13927006 -2083.64458236 444342.82487185
0.8100000000000005 4046.50524687 -230969.04514301 10.26844276 49513.38133948 43025.07806703 505438.81034817 -160458.46676463 -166181.08936497 10.26844276 65434.57216690 -4587.92324235 505438.81034817
0.8400000000000005 -11250.98943854 -252908.43134528 11.41344306 54762.05076151 44522.13789825 553579.87220529 -186788.91775055 -170877.61589645 11.41344306 70204.52306593 -7240.71182437 553579.87220529
0.8700000000000006 -26783.55067179 -267213.81800175 11.42666863 58384.48510354 44608.66413807 584775.42181209 -207887.53304006 -170009.87243151 11.42666863 72827.15424450 -9740.97642110 584775.42181209
0.9000000000000006 -40603.19377631 -272874.06766247 10.18706351 60093.51239229 43424.27589654 596797.36135328 -221661.89731115 -164240.30999703 10.18706351 73198.13007246 -11786.93016335 596797.36135328
0.9300000000000006 -50894.76465367 -269731.07954727 7.83793953 59788.50812185 41237.05255795 589330.36467248 -226716.70865814 -154740.64223114 7.83793953 71435.85902986 -13117.86003012 589330.36467248
0.9600000000000006 -56250.50119697 -258462.78724524 4.76620785 57562.52798598 38394.79552019 563931.29682278 -222535.90038700 -142985.67870397 4.76620785 67852.07415573 -13553.63360653 563931.29682278
0.9900000000000007 -55889.54057401 -240486.74802294 1.51046623 53690.78470823 35272.16808370 523805.41582939 -209569.68344981 -130529.93717524 1.51046623 62906.30719355 -13023.92871528 523805.41582939
1.0200000000000007 -49780.31412963 -217796.21574721 -1.35780680 48600.60920231 32222.86953403 473427.71315379 -189205.17876228 -118805.18338096 -1.35780680 57150.82989355 -11580.81077995 473427.71315379
1.0500000000000007 -38642.68857822 -192746.36967823 -3.35593725 42825.53169469 29543.22493668 418053.48833286 -163616.77218550 -108967.75791162 -3.35593725 51172.43856008 -9392.00917839 418053.48833286
1.0800000000000007 -23834.11869596 -167813.62767995 -4.15817238 36949.19685323 27450.12731748 363173.58175729 -135515.42106153 -101808.88715449 -4.15817238 45537.19882494 -6716.85648370 363173.58175729
1.1100000000000008 -7145.82884574 -145353.16945603 -3.63782462 31544.38394275 26072.78877608 313972.83900242 -107833.07582333 -97727.34775530 -3.63782462 40741.49354228 -3869.00204626 313972.83900242
1.1400000000000008 9451.47421546 -127378.78834502 -1.85514135 27115.86648667 25455.91985136 274842.47944407 -83387.20350813 -96753.60652805 -1.85514135 37173.86661871 -1173.75952223 274842.47944407
1.1700000000000008 24069.37346227 -115385.88850780 0.91758406 24050.63473149 25570.42572097 248994.00792595 -64570.52702302 -98609.76141118 0.91758406 35087.38833560 1074.65451464 248994.00792595
1.2000000000000008 35132.98137867 -110232.88698411 4.29374300 22585.42409149 26328.85385529 238214.82798743 -53103.65252008 -102789.19127239 4.29374300 34587.61763301 2647.00457088 238214.82798743
1.2300000000000009 41554.24241148 -112089.48167770 7.83644223 22789.68795811 27602.69130298 242771.81817237 -49875.94599776 -108642.51919022 7.83644223 35632.79309564 3403.30730303 242771.81817237
1.260000000000001 42832.73939299 -120452.86395255 11.11405833 24566.20922998 29239.11952902 261463.56264796 -54885.71643261 -115460.35739577 11.11405833 38046.11282946 3304.24656033 261463.56264796
1.290000000000001 39077.12668651 -134227.17020046 13.76109276 27669.62698667 31076.04547688 291812.44084677 -67281.24099891 -122544.64353754 13.76109276 41539.46336433 2408.70161399 291812.44084677
1.320000000000001 30954.18275244 -151854.75006983 15.52040231 31737.46406726 32954.51605826 330365.92033276 -85489.61099942 -129265.43606010 15.52040231 45744.13783514 860.58571590 330365.92033276
1.350000000000001 19577.17765939 -171484.69466572 16.27812738 36330.96680760 34728.35234903 373072.21285566 -107414.83538838 -135101.14554729 16.27812738 50246.52644215 -1133.21955129 373072.21285566
1.380000000000001 6352.21847501 -191161.00257905 16.07330414 40981.39722103 36271.36562925 415691.24805125 -130679.54446281 -139662.93798132 16.07330414 54625.95247683 -3330.49527815 415691.24805125
1.410000000000001 -7196.27601113 -209012.12213768 15.06820395 45237.39847529 37482.66996169 454199.40973873 -152882.42448050 -142705.35334699 15.06820395 58491.92133200 -5483.42111823 454199.40973873
1.440000000000001 -19599.18387403 -223424.31139491 13.51253371 48707.90621372 38290.78019053 485153.00935202 -171843.56149232 -144126.12984622 13.51253371 61517.36111077 -7366.02045148 485153.00935202
1.470000000000001 -29596.00869618 -233183.47680157 11.70107906 51096.98015961 38656.81507685 505980.62394958 -185813.15615216 -143958.07926192 11.70107906 63465.51724893 -8796.52508910 505980.62394958
1.500000000000001 -36253.35321628 -237573.41716408 9.93065459 52227.55950028 38576.68621287 515181.14741235 -193624.76620637 -142354.78240640 9.93065459 64208.29790430 -9652.62507064 515181.14741235
1.5300000000000011 -39039.29935936 -236422.74369946 8.44821092 52052.84917437 38081.68976647 512414.57401410 -194781.07860639 -139571.17198684 8.44821092 63734.74370419 -9879.10155837 512414.57401410
1.5600000000000012 -37851.08612714 -230098.13822270 7.42667726 50654.32617890 37236.72867555 498483.15602101 -189468.71355145 -135939.19419990 7.42667726 62148.36089322 -9487.67418185 498483.15602101
1.5900000000000012 -32997.37074450 -219445.82549348 7.01125827 48225.73089616 36135.70305942 475208.85679078 -178504.29592428 -131838.96669475 7.01125827 59652.54202061 -8548.94066809 475208.85679078
1.6200000000000012 -25140.96186487 -205689.34299187 7.25509093 45050.74218576 34893.56089829 445218.12382900 -163221.67386756 -127666.98462715 7.25509093 56529.15882797 -7182.21176611 445218.12382900
1.6500000000000012 -15210.97109837 -190294.82530739 8.13399039 41471.08402137 33635.93827175 411660.66092060 -145314.54221166 -123802.98058748 8.13399039 53108.68477820 -5540.28469114 411660.66092060
1.6800000000000013 -4294.78887362 -174818.48533774 9.55879854 37850.66260026 32487.10335853 377888.41362571 -126652.21079538 -120578.46212278 9.55879854 49736.31128298 -3792.60911112 377888.41362571
1.7100000000000013 6478.31135394 -160752.09766832 11.40438938 34539.45506301 31557.64161695 347128.06202740 -109088.04046223 -118249.75624024 11.40438938 46737.70527915 -2108.46050794 347128.06202740
1.7400000000000013 16050.49645099 -149381.63973936 13.52202231 31841.51588930 30933.32443610 322179.05920949 -94279.35556257 -116978.18532637 13.52202231 44388.51528199 -642.18833518 322179.05920949
1.7700000000000014 23535.45400958 -141672.51826257 15.72634588 29987.77843473 30666.69591142 305162.79448719 -83535.51924276 -116819.67749972 15.72634588 42889.19011947 480.06715164 305162.79448719
1.8000000000000014 28297.35892743 -138191.27846866 17.82510463 29117.85026225 30772.56787862 297346.04002350 -77706.73571877 -117725.24449328 17.82510463 42348.92079551 1170.06204748 297346.04002350
1.8300000000000014 30002.67712682 -139069.81485532 19.60905478 29270.26079060 31227.80622802 299055.50696860 -77122.11269243 -119552.30559268 19.60905478 42778.59343755 1384.19365328 299055.50696860
1.8600000000000014 28642.10804302 -144013.18248879 20.87884018 30384.42596392 31975.97077504 309683.75125885 -81579.66909338 -122085.72674278 20.87884018 44095.45941160 1125.39212851 309683.75125885
1.8900000000000015 24520.35810376 -152348.42056742 21.47862575 32309.70143202 32935.31845131 327787.39614626 -90388.08979399 -125065.11277857 21.47862575 46135.19599816 442.37803676 327787.39614626
1.9200000000000015 18215.14782348 -163107.18087865 21.31117876 34823.89661854 34009.38788529 351262.38313983 -102454.13911322 -128214.24820581 21.31117876 48672.48224400 -575.94464862 351262.38313983
1.9500000000000015 10508.62618037 -175132.99869642 20.35806960 37657.54358369 35098.26492101 377576.41320005 -116407.01015468 -131268.45182087 20.35806960 51446.12556438 -1809.68329732 377576.41320005
1.9800000000000015 2297.41076203 -187201.68868913 18.68513374 40521.77640789 36108.98134395 404034.19583670 -130747.06879265 -133996.09825066 18.68513374 54186.12845379 -3120.31731370 404034.19583670
2.0100000000000016 -5509.17621875 -198142.81732198 16.43953423 43137.22951539 36963.72870868 428048.44868131 -144003.70563481 -136212.55390875 16.43953423 56639.93073978 -4365.32428409 428048.44868131
2.0400000000000014 -12090.85782865 -206950.59497405 13.83802752 45260.98811627 37605.21256172 447389.55321013 -154885.69663775 -137786.64151574 13.83802752 58595.25243057 -5413.45080986 447389.55321013
2.070000000000001 -16805.29919224 -212873.91660765 11.14429901 46709.15939791 37999.13462610 460389.74705776 -162407.73098971 -138641.44895231 11.14429901 59897.80912712 -6158.91758045 460389.74705776
2.100000000000001 -19252.58500803 -215477.75052924 8.63539967 47372.73409772 38134.28499000 466082.64863125 -165979.41200859 -138752.14517950 8.63539967 60462.59303597 -6532.57001172 466082.64863125
2.130000000000001 -19306.87325033 -214670.95827813 6.56200671 47225.30011044 38020.89825652 464266.49780309 -165447.31132109 -138143.26932346 6.56200671 60278.16493565 -6508.49496768 464266.49780309
2.1600000000000006 -17112.43466217 -210699.37887941 5.11296754 46322.03918056 37687.98598415 455487.98472848 -161087.27818965 -136886.64100519 5.11296754 59404.05848162 -6105.19756431 455487.98472848
2.1900000000000004 -13046.14874018 -204105.98223426 4.38847934 44790.35125709 37180.13033751 440951.79497330 -153549.74436114 -135099.70387604 4.38847934 57961.88339266 -5381.23881856 440951.79497330
2.22 -7654.05491552 -195663.64179975 4.38608184 42813.46318951 36553.92976799 422368.70336025 -143767.32208259 -132942.85381392 4.38608184 56121.22176535 -4426.15852942 422368.70336025
2.25 -1573.07915858 -186288.28465002 5.00563593 40609.06988283 35874.13982932 401760.65379673 -132838.04427201 -130613.37439127 5.00563593 54081.79623437 -3348.10114928 401760.65379673
2.28 4549.91620238 -176941.97975932 6.07166813 38405.49730806 35209.32811703 381245.35204125 -121899.59716385 -128334.15036492 6.07166813 52053.54225394 -2260.03290879 381245.35204125
2.3099999999999996 10130.54467444 -168536.10508921 7.36440996 36418.18293819 34626.97930654 362822.29161636 -112009.64594694 -126336.39961976 7.36440996 50236.51599374 -1266.57223443 362822.29161636
2.3399999999999994 14702.23635879 -161844.25654417 8.65360835 34828.95897515 34188.10401861 348181.77602323 -104045.12027057 -124837.22232638 8.65360835 48802.43326047 -453.15288553 348181.77602323
2.369999999999999 17950.02295715 -157433.09958349 9.73345886 33769.95109020 33941.73811072 338555.26142632 -98629.42934325 -124014.59525416 9.73345886 47879.39459957 121.47176713 338555.26142632
2.399999999999999 19722.19753635 -155617.08566766 10.45009971 33313.46170927 33919.85036250 334619.15758468 -96092.19692624 -123983.59616194 10.45009971 47541.13088758 428.78152873 334619.15758468
2.429999999999999 20022.46713055 -156440.38923291 10.71866551 33468.43852889 34133.38873280 336458.14691572 -96462.03779396 -124778.08236215 10.71866551 47801.71047734 470.19079833 336458.14691572
2.4599999999999986 18987.81893521 -159686.18142485 10.52750941 34183.37449988 34570.14595828 343588.07034318 -99488.76621827 -126341.59727633 10.52750941 48616.08054641 273.48872100 343588.07034318
2.4899999999999984 16857.51468585 -164911.22825478 9.92891639 35354.98294007 35195.05182395 355032.90009022 -104689.78484444 -128529.91074108 9.92891639 49886.40799458 -113.08837674 355032.90009022
2.5199999999999982 13938.54597146 -171500.86362005 9.02254570 36841.31244403 35953.16332239 369445.29978672 -111413.38326879 -131125.46402139 9.02254570 51473.46744735 -628.01626662 369445.29978672
2.549999999999998 10572.02692964 -178737.96684904 7.93401101 38477.71584190 36775.12047531 385257.04940040 -118911.27648162 -133862.38034729 7.93401101 53211.79086342 -1203.91672933 385257.04940040
2.579999999999998 7103.15615590 -185878.52658447 6.79480877 40093.97888379 37584.62750003 400843.25596157 -126413.27673918 -136458.65651050 6.79480877 54927.06932712 -1774.37937984 400843.25596157
2.6099999999999977 3856.03345521 -192226.05891632 5.72680659 41530.98720139 38307.02310016 414683.96229831 -133197.72237584 -138650.97718516 5.72680659 56453.99848067 -2279.68687828 414683.96229831
2.6399999999999975 1113.67301433 -197197.66446638 4.83206155 42655.38104903 38877.91164809 425507.62746774 -138652.32003787 -140227.29151878 4.83206155 57652.74415860 -2671.07422913 425507.62746774
2.6699999999999973 -897.25741595 -200375.66014423 4.18889627 43370.95769657 39250.67058501 432403.47737820 -142321.44487600 -141052.53126943 4.18889627 58422.31363058 -2913.48295702 432403.47737820
2.699999999999997 -2017.53915345 -201540.39524635 3.85077462 43625.94659882 39401.85681993 434893.19815622 -143937.19577842 -141083.96454499 3.85077462 58709.52282442 -2986.88252700 434893.19815622
2.729999999999997 -2162.67102372 -200681.85463716 3.84893288 43415.65523341 39333.71407067 432956.65082939 -143432.73962137 -140374.26092868 3.84893288 58512.64017382 -2886.36827657 432956.65082939
2.7599999999999967 -1326.60450248 -197990.14920659 4.19396327 42780.53556281 39073.44990439 427011.23794112 -140938.22815177 -139062.12607246 4.19396327 57879.50819100 -2621.30540751 427011.23794112
2.7899999999999965 418.80073937 -193826.45056850 4.87491411 41800.03851520 38669.45753236 417848.69402808 -136759.86072753 -137352.13441308 4.87491411 56900.52633389 -2213.65504201 417848.69402808
2.8199999999999963 2929.23322942 -188678.49651928 5.85590672 40583.04535801 38184.95882334 406537.80467534 -131344.56367267 -135487.12503307 5.85590672 55697.38989716 -1695.70325054 406537.80467534
2.849999999999996 5998.65336782 -183105.80846720 7.07814487 39255.80841778 37689.99631084 394304.27154381 -125233.67036743 -133717.04731617 7.07814487 54408.90030746 -1107.19635888 394304.27154381
2.879999999999996 9375.54970074 -177680.53138487 8.46418783 37948.77538763 37252.86454379 382400.86966644 -119009.59385633 -132268.62339782 8.46418783 53175.58955186 -492.08327678 382400.86966644
2.9099999999999957 12784.16229488 -172930.05949650 9.92418049 36783.64023231 36932.17919192 371981.48274096 -113240.24989047 -131319.78559146 9.92418049 52124.95579560 105.03290561 371981.48274096
2.9399999999999955 15949.12433938 -169287.06690222 11.36442705 35861.86788055 36770.55335437 363991.54692855 -108426.29899938 -130981.76694810 11.36442705 51358.87758921 642.53766050 363991.54692855
2.9699999999999953 18621.33333005 -167051.54404825 12.69713880 35255.72640969 36790.61214931 359084.96616553 -104956.00853178 -131290.55067661 12.69713880 50944.45455473 1085.32811483 359084.96616553
2.999999999999995 20602.23329668 -166368.01474725 13.85028332 35002.59943095 36993.67613219 357574.51064570 -103071.97252866 -132207.93027200 13.85028332 50909.05467087 1407.90383731 357574.51064570
