# Level force for level 19
# start: 0.0, 0.0, 85.64807962962963
# center: 0.0, 0.0, 87.9628925925926
# end: 0.0, 0.0, 90.27770555555556
# as part of FluidModelPart.Drag_structure
# Time Fx Fy Fz Mx My Mz Fx' Fy' Fz' Mx' My' Mz'
0.03 28189.02162323 -19925.79752924 -0.53737035 36588.38120175 32294.03476512 -408602.91969758 5842.98179133 -34022.31489827 -0.53737035 48707.22343469 -3036.56148611 -408602.91969758
0.06 80547.81386578 -56981.06356833 -1.59460079 104630.98797029 92364.76826754 -1168426.93758281 16664.20894586 -97247.60184263 -1.59460079 139297.03510074 -8673.52713134 -1168426.93758281
0.09 151326.13168884 -107021.76933888 -3.13709941 196519.37806069 173461.59622013 -2194455.40936243 31327.91505380 -182679.55272201 -3.13709941 261616.05582397 -16304.31389858 -2194455.40936243
0.12 233481.54517921 -164940.26029324 -4.99172505 302876.05134519 267251.04720133 -3381897.10644932 48466.00733411 -281726.76042216 -4.99172505 403140.73752045 -25190.68200992 -3381897.10644932
0.15 319232.67876792 -225145.41649178 -6.82731119 413433.02463868 364631.60334598 -4616086.89296796 66529.74117874 -384933.44268754 -6.82731119 550174.77464934 -34507.81592761 -4616086.89296796
0.18 400652.54337771 -282073.65579962 -8.18477927 517967.72249847 456599.41443653 -5783015.28663735 83847.93551202 -482760.32513201 -8.18477927 689123.03124829 -43393.94678054 -5783015.28663735
0.21 470301.15265471 -330681.40194547 -8.56653662 607207.32108377 535065.25665756 -6779440.68207547 98726.07251408 -566380.19596992 -8.56653662 807708.68568433 -51012.14296457 -6779440.68207547
0.24 521882.69984946 -366877.30543527 -7.57683406 673625.98208907 593542.51349209 -7521710.37892746 109605.36551076 -628448.22658422 -7.57683406 896023.43613139 -56627.56370587 -7521710.37892746
0.27 550876.24447707 -387858.60982167 -5.06594919 712068.50129979 627648.71938473 -7952569.76331894 115270.87491783 -663785.78121080 -5.06594919 947323.13161842 -59693.80025843 -7952569.76331894
0.30000000000000004 555050.30639793 -392323.70360336 -1.22184287 720145.98231389 635389.24828082 -8045421.03487579 115065.08431549 -669894.58679180 -1.22184287 958508.15369079 -59932.06138601 -8045421.03487579
0.33000000000000007 534760.99747022 -380542.45055873 3.45638293 698367.12815612 617214.93353794 -7805697.52686838 109048.98030585 -647217.27494470 3.45638293 930256.99703125 -57383.26712269 -7805697.52686838
0.3600000000000001 492947.57348263 -354278.77462423 8.31209020 649994.35552864 575866.67520853 -7269267.79062178 98053.64801177 -599079.49594628 8.31209020 866814.64762658 -52416.18542798 -7269267.79062178
0.3900000000000001 434788.51920362 -316574.27158839 12.70899998 580641.54906969 516035.14526076 -6498056.95868671 83590.09612160 -531293.72450027 12.70899998 775467.52733031 -45683.62624137 -6498056.95868671
0.42000000000000015 367059.81539230 -271415.50540008 16.24114238 497657.91708927 443870.05548090 -5573329.05710046 67630.74017741 -451470.22895254 16.24114238 665760.81408119 -38033.76168880 -5573329.05710046
0.4500000000000002 297285.73466464 -223321.09250439 18.74998568 409363.93946607 366385.27059378 -4587340.64771212 52300.90003955 -368124.61782323 18.74998568 548537.52693343 -30390.50820597 -4587340.64771212
0.4800000000000002 232828.41442044 -176892.23958688 20.28637484 324220.89851411 290806.74840190 -3634223.14467495 39552.84853845 -289716.25284076 20.28637484 434890.21975152 -23627.37213192 -3634223.14467495
0.5100000000000002 180055.63809902 -136373.64093986 21.01394510 250021.08927863 223918.55557052 -2801030.57896304 30887.83640701 -223749.28897436 21.01394510 335125.93674597 -18457.27859115 -2801030.57896304
0.5400000000000003 143698.41350358 -105268.40595083 21.11893135 193179.89808820 171464.12789581 -2159840.08594915 27174.11894160 -176046.12632666 21.11893135 257842.26349246 -15355.36836172 -2159840.08594915
0.5700000000000003 126460.25249400 -86042.40679723 20.74918673 158195.10373765 137657.68479752 -1761641.50338859 28579.73277314 -150262.07140500 20.74918673 209199.51300616 -14522.14820063 -1761641.50338859
0.6000000000000003 128888.97758448 -79942.08402628 20.00571205 147316.71379148 124851.53841733 -1632525.88839150 34610.68035302 -147665.85978735 20.00571205 192452.01676054 -15885.27784760 -1632525.88839150
0.6300000000000003 149485.70123110 -86936.26721631 18.94945732 160445.64234039 133388.32506877 -1772410.85081290 44229.12895124 -167175.57711064 18.94945732 207771.99089797 -19132.41252348 -1772410.85081290
0.6600000000000004 185007.10331431 -105779.85206257 17.63066857 195256.52985478 161646.03954719 -2156273.87220067 56022.12661488 -205617.42802758 17.63066857 252368.22704704 -23766.20561550 -2156273.87220067
0.6900000000000004 230909.82673106 -134186.22179628 16.09337080 247519.33763334 206263.20757604 -2737625.09314306 68393.91695019 -258161.89169810 16.09337080 320872.71490165 -29172.48932903 -2737625.09314306
0.7200000000000004 281889.80620343 -169086.41321893 14.38091497 311579.45964609 262512.59510315 -3453769.72725004 79764.04412019 -318888.34290742 14.38091497 405944.38493851 -34695.51264988 -3453769.72725004
0.7500000000000004 332468.48981219 -206947.14989294 12.51859426 380944.73527155 324780.66792714 -4232288.45594478 88756.99064052 -381424.45671358 12.51859426 499023.21825741 -39713.99287825 -4232288.45594478
0.7800000000000005 377573.03525614 -244116.67719189 10.49264678 448921.93510334 387104.97799078 -4998105.02591725 94367.89577969 -439601.01146592 10.49264678 591160.29950331 -43711.18956661 -4998105.02591725
0.8100000000000005 413051.37295001 -277166.57301490 8.24094970 509243.79698699 443721.99502215 -5680498.82821697 96085.06349429 -488057.79008844 8.24094970 673848.57376847 -46330.91048490 -5680498.82821697
0.8400000000000005 436062.09679721 -303199.32495293 5.66989737 556630.81471022 489581.26333626 -6219453.02988644 93948.16693833 -522736.76438913 5.66989737 739783.65494594 -47411.19245204 -6219453.02988644
0.8700000000000006 445290.35003229 -320095.38215400 2.70684660 587239.58673197 520785.98903810 -6570801.47475825 88526.21075717 -541209.44145236 2.70684660 783492.39835515 -46989.78956358 -6570801.47475825
0.9000000000000006 440966.31940149 -326679.10910111 -0.64453508 598960.70409132 534924.47276214 -6709743.58128663 80813.26140629 -542807.28804104 -0.64453508 801777.89763999 -45280.45341450 -6709743.58128663
0.9300000000000006 424696.26672366 -322790.84804255 -4.25092298 591544.11967225 531262.54603026 -6632442.53116763 72058.01258907 -528553.20770075 -4.25092298 793944.20727971 -42625.50950285 -6632442.53116763
0.9600000000000006 399146.13675048 -309261.39814491 -7.84713742 566545.68178363 510777.01236138 -6355595.47319222 63558.10819318 -500919.77176818 -7.84713742 761782.18255610 -39434.40432623 -6355595.47319222
0.9900000000000007 367642.06407637 -287793.51241132 -11.06271670 527106.24801673 476022.34196504 -5914061.54476747 56461.45235028 -463462.94076537 -11.06271670 709319.02837820 -36121.77637865 -5914061.54476747
1.0200000000000007 333751.65350578 -260765.21295072 -13.49678303 477589.13717946 430842.51469312 -5356825.58817376 51609.20705115 -420386.90780117 -13.49678303 642358.18128360 -33054.85375766 -5356825.58817376
1.0500000000000007 300902.56286023 -230975.99929833 -14.81005347 423115.78063926 379957.21547903 -4741742.96020749 49445.54727969 -376094.93807007 -14.81005347 567858.36134304 -30517.71409108 -4741742.96020749
1.0800000000000007 272074.66248533 -201362.76933199 -14.79363843 369048.41778213 328468.10086831 -4129628.69368414 50000.85915927 -334770.81850558 -14.79363843 493218.66032736 -28694.61727247 -4129628.69368414
1.1100000000000008 249582.86734013 -174714.41547420 -13.43612792 320470.14422427 281340.14787823 -3578305.62726127 52939.99001133 -300023.48591704 -13.43612792 425544.13853354 -27669.08576409 -3578305.62726127
1.1400000000000008 234951.87255748 -153413.08137761 -10.93144167 281715.69085272 242915.44805983 -3137205.99908805 57656.63217304 -274615.49250271 -10.93144167 370970.23594668 -27435.91479054 -3137205.99908805
1.1700000000000008 228874.51179388 -139226.16742850 -7.66600340 255993.51205159 216510.01942913 -2843032.26765915 63390.95222291 -260286.48643752 -7.66600340 334110.45124461 -27919.04537828 -2843032.26765915
1.2000000000000008 231241.45389712 -133166.92839588 -4.14894518 245133.42281402 204132.01730145 -2716850.37057628 69349.16204358 -257675.63824060 -4.14894518 317678.63925841 -28992.37187612 -2716850.37057628
1.2300000000000009 241228.12345910 -135433.57435435 -0.94064997 249477.99322865 206343.90234957 -2762819.90417797 74808.04308454 -266340.04073713 -0.94064997 322314.75337666 -30500.40816092 -2762819.90417797
1.260000000000001 257426.80797111 -145428.16221022 1.45293343 267918.68077204 222273.75889379 -2968592.98730790 79195.00190123 -284861.48124993 1.45293343 346618.39817408 -32275.83378684 -2968592.98730790
1.290000000000001 278007.78416716 -161849.96586777 2.61288805 298066.01925292 249766.98260632 -3307255.56967547 82135.98100734 -311026.39780716 2.61288805 387376.43057245 -34152.57633759 -3307255.56967547
1.320000000000001 300898.23373677 -182850.10385482 2.25116002 336533.02859681 285654.71894099 -3740548.22569219 83472.63314592 -342061.72989873 2.25116002 439953.17545516 -35976.39777294 -3740548.22569219
1.350000000000001 323964.91125518 -206230.38830061 0.27276922 379298.60610421 326107.06302631 -4222999.83116263 83250.87956094 -374904.69166913 0.27276922 498797.13212963 -37612.10081216 -4222999.83116263
1.380000000000001 345189.05829821 -229665.87123951 -3.22466075 422115.04799130 367032.50831175 -4706547.94020027 81687.22895349 -406483.81887463 -3.22466075 558011.58841868 -38949.23733239 -4706547.94020027
1.410000000000001 362823.08511545 -250929.65679651 -7.95124453 460918.71114783 404483.27553039 -5145197.52984342 79120.60193453 -433988.72577778 -7.95124453 611931.61323248 -39905.87922431 -5145197.52984342
1.440000000000001 375520.10639340 -268099.39470346 -13.47269239 492207.32410871 435027.63566294 -5499285.63937128 75957.91367584 -455107.71372949 -13.47269239 655654.12780777 -40432.14544614 -5499285.63937128
1.470000000000001 382428.66161633 -279726.93481642 -19.25670752 513349.23183580 456055.44268885 -5738973.62021361 72621.08745979 -468214.71243822 -19.25670752 685472.61907031 -40512.82682568 -5738973.62021361
1.500000000000001 383245.75848697 -284956.58324410 -24.74802476 522797.96863655 465990.98806088 -5846667.83196772 69500.94233147 -472490.40704277 -24.74802476 699179.37644312 -40168.60118379 -5846667.83196772
1.5300000000000011 378224.04596644 -283582.32857702 -29.42869853 520194.90746248 464396.91736397 -5818179.35855140 66921.80014920 -467967.77527216 -29.42869853 696211.55603562 -39455.13717524 -5818179.35855140
1.5600000000000012 368130.59048167 -276040.77309342 -32.90599333 506354.26243376 451964.31268540 -5662553.67910333 65117.33435346 -455497.93943013 -32.90599333 677633.56300379 -38459.50229546 -5662553.67910333
1.5900000000000012 354160.45492841 -263341.87623375 -34.92712408 483134.01971530 430394.77820558 -5400631.18541529 64218.43285271 -436640.08576326 -34.92712408 645962.40781905 -37292.27530615 -5400631.18541529
1.6200000000000012 337812.72905030 -246946.95145949 -35.40371312 453211.18430639 402190.26509802 -5062525.98395518 64251.80751225 -413487.53545295 -35.40371312 604860.16551066 -36077.23795461 -5062525.98395518
1.6500000000000012 320740.17212994 -228607.36257959 -34.41195884 419786.04346876 370375.19254968 -4684307.74049178 65147.73440283 -388447.36702122 -34.41195884 558728.36821938 -34938.74774908 -4684307.74049178
1.6800000000000013 304587.82754278 -210181.62036831 -32.16422420 386248.17490164 338180.67836591 -4304242.52299562 66755.26927917 -363996.96736559 -32.16422420 512248.55463268 -33988.85275507 -4304242.52299562
1.7100000000000013 290837.17040360 -193449.95590103 -29.00243961 355838.71683926 308723.38685599 -3958988.35305964 68863.15977563 -342442.71105135 -29.00243961 469916.37004251 -33315.56932901 -3958988.35305964
1.7400000000000013 280671.65525033 -179944.97770318 -25.33854220 331343.30164272 284710.13231146 -3680119.50632543 71224.51673998 -325705.14468875 -25.33854220 435615.56072226 -32974.63026235 -3680119.50632543
1.7700000000000014 274876.78317842 -170814.56382403 -21.59818457 314844.41054123 268195.99720841 -3491308.10374498 73583.10097081 -315151.37378159 -21.59818457 412271.82602554 -32985.40939922 -3491308.10374498
1.8000000000000014 273784.47294371 -166728.89351669 -18.16601631 307551.00860748 260416.37655047 -3406409.55879913 75699.72617670 -311489.98862747 -18.16601631 401613.58953798 -33329.21795624 -3406409.55879913
1.8300000000000014 277265.30208687 -167838.52908314 -15.41077523 309724.81153226 261705.84019845 -3428591.66820786 77376.41323430 -314735.93735242 -15.41077523 404062.48881663 -33954.54025574 -3428591.66820786
1.8600000000000014 284768.08724461 -173784.98109472 -13.63368778 320701.68531034 271506.95038164 -3550540.41969720 78476.90695573 -324245.98415664 -13.63368778 418754.74217503 -34785.93066676 -3550540.41969720
1.8900000000000015 295398.33557950 -183760.20987417 -13.01579650 339002.26222095 288464.47312872 -3755665.86257294 78940.07572520 -338816.25675377 -13.01579650 443685.98353473 -35735.61337329 -3755665.86257294
1.9200000000000015 308024.71358635 -196606.43834401 -13.62494094 362513.94429507 310592.27980738 -4020147.04107053 78784.61797197 -356828.10952794 -13.62494094 475957.97552172 -36714.16104974 -4020147.04107053
1.9500000000000015 321399.59703589 -210944.74806533 -15.40597511 388724.80408966 335493.93794705 -4315571.82745476 78103.37272202 -376424.29634739 -15.40597511 512099.98355655 -37639.90641787 -4315571.82745476
1.9800000000000015 334279.77290553 -225318.71876181 -18.17689081 414984.28566007 360614.04862641 -4611895.27724325 77047.10027026 -395695.88819974 -18.17689081 548430.84165096 -38445.56330122 -4611895.27724325
2.0100000000000016 345535.89295405 -238338.66479720 -21.64499618 438764.99228824 383494.90799955 -4880418.97442026 75799.88695410 -412861.65914821 -21.64499618 581425.55139127 -39081.85139729 -4880418.97442026
2.0400000000000014 354242.50535792 -248812.68830963 -25.44366167 457900.61748413 402013.24755829 -5096505.22825992 74550.13857410 -426424.41687209 -25.44366167 608050.92520783 -39518.33825724 -5096505.22825992
2.070000000000001 359744.26680893 -255852.64149682 -29.16879687 470778.12370715 414574.23385450 -5241777.25662067 73462.47276669 -435292.74834047 -29.16879687 626038.65577134 -39742.15164387 -5241777.25662067
2.100000000000001 361696.52755104 -258945.97783121 -32.42138995 476467.84086040 420244.86365216 -5305614.13950208 72655.61047754 -438860.52424840 -32.42138995 634071.63413696 -39755.64844244 -5305614.13950208
2.130000000000001 360080.82249197 -257987.93405229 -34.84835903 474781.86825605 418815.32197668 -5285825.15970355 72190.57372662 -437040.60899198 -34.84835903 631868.63286281 -39574.32439373 -5285825.15970355
2.1600000000000006 355195.63133112 -253272.77343614 -36.18549547 466257.93962524 410785.02947251 -5188470.62903493 72070.34397546 -430252.13514869 -36.18549547 620163.03084101 -39225.27094115 -5188470.62903493
2.1900000000000004 347624.09999542 -245446.38544514 -36.28737657 452073.48864312 397277.82391140 -5026882.70165330 72250.55484465 -419364.16197662 -36.28737657 600582.07271700 -38746.38611142 -5026882.70165330
2.22 338180.08976158 -235426.72381656 -35.14403518 433901.12664034 379898.39039051 -4820016.26500385 72657.60184947 -405601.26761591 -35.14403518 575443.15701885 -38185.70100488 -4820016.26500385
2.25 327834.77820459 -224301.17959639 -32.88423798 413722.06302894 360547.74325156 -4590321.96612389 73209.30965650 -390419.07989801 -32.88423798 547491.43048894 -37599.92209957 -4590321.96612389
2.28 317628.10905018 -213212.04342941 -29.75704459 393617.75922132 341218.95706914 -4361374.95489536 73833.30806526 -375360.67154441 -29.75704459 519608.02515384 -37051.54832786 -4361374.95489536
2.3099999999999996 308571.37782528 -203241.93083384 -26.10129652 375561.23994246 323795.21447181 -4155506.02394955 74479.16622627 -361906.66125439 -26.10129652 494519.69138291 -36604.10764537 -4155506.02394955
2.3399999999999994 301549.46790994 -195310.51369931 -22.30145399 361228.85289074 309870.52090258 -3991671.19177709 75122.28494851 -351333.06229612 -22.30145399 474538.91805930 -36315.82481926 -3991671.19177709
2.369999999999999 297232.75509057 -190092.27698257 -18.74030969 351850.10263259 300609.67495331 -3883759.14107122 75759.75860974 -344590.83482087 -18.74030969 461358.73318245 -36232.45388292 -3883759.14107122
2.399999999999999 296009.06802038 -187962.37523279 -15.75116076 348108.68167020 296658.76782798 -3839482.61841749 76400.54915488 -342219.48942495 -15.75116076 455919.43582851 -36380.58296930 -3839482.61841749
2.429999999999999 297944.26761380 -188974.64867645 -13.58243436 350101.94551675 298111.72839492 -3859932.70339571 77053.15649392 -344303.66759684 -13.58243436 458356.28448079 -36762.63508221 -3859932.70339571
2.4599999999999986 302777.65044107 -192872.18122538 -12.37217705 357360.16102561 304532.29127362 -3939806.03019658 77714.90257190 -350477.35706532 -12.37217705 468028.64143698 -37354.94493727 -3939806.03019658
2.4899999999999984 309953.35600826 -199128.02230801 -12.13869929 368920.56187810 315025.80332536 -4068247.26730057 78365.34498671 -359974.89478323 -12.13869929 483623.11280325 -38109.34924305 -4068247.26730057
2.5199999999999982 318684.64414923 -207010.36199739 -12.78612502 383446.28894536 328350.88674515 -4230193.03107521 78965.64219370 -371722.50368218 -12.78612502 503316.60976019 -38958.33250797 -4230193.03107521
2.549999999999998 328043.84951240 -215664.63285050 -14.12112478 399376.40424310 343057.95305569 -4408060.78868871 79464.10616607 -384459.95486746 -14.12112478 524980.36863185 -39823.15874054 -4408060.78868871
2.579999999999998 337066.97913211 -224203.66059612 -15.88318966 415090.62969327 357639.99523083 -4583600.11392469 79806.41788402 -396878.27543274 -15.88318966 546403.06491435 -40623.73321187 -4583600.11392469
2.6099999999999977 344860.30943731 -231796.60301550 -17.77707475 429071.95894748 370680.85300616 -4739718.10792035 79948.11351695 -407758.01321347 -17.77707475 565510.63660543 -41288.74697209 -4739718.10792035
2.6399999999999975 350696.26990392 -237748.00718721 -19.50637614 440051.16336220 380987.10710660 -4862101.38605581 79866.48249023 -416092.93868156 -19.50637614 580561.72866217 -41764.59470272 -4862101.38605581
2.6699999999999973 354087.42690914 -241559.65596834 -20.80410600 447119.78815346 387692.03230050 -4940485.41906136 79569.14990405 -421186.09149665 -20.80410600 590301.09925768 -42021.76915432 -4940485.41906136
2.699999999999997 354830.50953687 -242969.89553003 -21.45775065 449801.92720722 390323.07891240 -4969463.16387523 79097.39871193 -422708.72021887 -21.45775065 594058.08887158 -42057.89696643 -4969463.16387523
2.729999999999997 353016.39071563 -241967.55566093 -21.32731463 448079.55902249 388828.11516619 -4948774.52086658 78523.38431005 -420717.18318000 -21.32731463 591783.09164588 -41897.09774588 -4948774.52086658
2.7599999999999967 349006.06600421 -238780.48290901 -20.35682782 442371.12936627 383559.82598660 -4883072.56706111 77941.25726686 -415627.85462677 -20.35682782 584021.37932190 -41585.87143018 -4883072.56706111
2.7899999999999965 343377.40776195 -233840.71363221 -18.57598901 433467.79328688 375221.49238307 -4781214.47213821 77454.13920789 -408154.84786157 -18.57598901 571829.67777013 -41186.35434812 -4781214.47213821
2.8199999999999963 336850.52015295 -227731.16837925 -16.09675440 422435.66922459 364781.11266249 -4655170.49864478 77159.03359786 -399219.54049488 -16.09675440 556646.32473620 -40767.92791137 -4655170.49864478
2.849999999999996 330201.39560970 -221120.02742950 -13.10200182 410495.66614704 353363.62569220 -4518678.05395330 77132.17514133 -389843.11684444 -13.10200182 540130.08513188 -40398.45322864 -4518678.05395330
