# Level force for level 48
# start: 0.0, 0.0, 219.9072314814815
# center: 0.0, 0.0, 222.22204444444446
# end: 0.0, 0.0, 224.5368574074074
# as part of FluidModelPart.Drag_structure
# Time Fx Fy Fz Mx My Mz Fx' Fy' Fz' Mx' My' Mz'
0.03 29649.02914018 -23257.49198960 -0.55129470 -52628.90172292 34343.34253065 -43568.58465136 4519.49926138 -37410.55985986 -0.55129470 -12929.84290264 61498.66368671 -43568.58465136
0.06 84725.73718853 -66509.54263687 -1.58355494 -150499.62767371 98111.15923724 -124572.92946264 12880.79469489 -106939.49191918 -1.58355494 -37044.24128741 175794.37330085 -124572.92946264
0.09 159139.81979970 -124915.67260972 -3.03782400 -282658.46584777 184188.21290952 -233949.74170253 24200.12655836 -200857.56491599 -3.03782400 -69628.98359779 330110.45232369 -233949.74170253
0.12 245425.95913850 -192507.35937040 -4.78348182 -435600.35530774 283799.45193314 -360520.60307488 37419.10074692 -309665.61922517 -4.78348182 -107339.44816642 508692.48208432 -360520.60307488
0.15 335372.26487208 -262753.59656499 -6.63960131 -594547.82977158 387332.76532755 -492051.58430037 51349.15280068 -422938.85262519 -6.63960131 -146523.17723238 694294.42711007 -492051.58430037
0.18 420691.61153174 -329162.51048764 -8.41742926 -744811.49104106 485215.53760668 -616378.52307888 64720.84802420 -530226.93458059 -8.41742926 -183562.05904204 869760.45299955 -616378.52307888
0.21 493707.26031286 -385858.62847451 -9.96860940 -873096.04179896 568762.02789693 -722488.95647995 76260.49891459 -621947.00446192 -9.96860940 -215196.64497585 1019547.61859051 -722488.95647995
0.24 548019.28148870 -428085.47381556 -11.22558510 -968637.90461845 630920.37249355 -801468.17661506 84806.00869920 -690210.29162407 -11.22558510 -238802.35709110 1131058.50464897 -801468.17661506
0.27 579098.71098631 -452592.30820711 -12.21443589 -1024080.79453545 666857.52708403 -847230.01847187 89453.53526869 -729515.71576092 -12.21443589 -252594.99481251 1195673.95378533 -847230.01847187
0.30000000000000004 584736.70215581 -457874.18839483 -13.02695654 -1036019.06585165 674331.44574583 -856971.50010403 89705.34375876 -737237.23084730 -13.02695654 -255751.76884805 1209400.44495645 -856971.50010403
0.33000000000000007 565276.27754608 -444247.01422005 -13.74544935 -1005167.77744841 653817.78792383 -831312.75457520 85580.61281985 -713840.76537360 -13.74544935 -248441.96016265 1173079.94316531 -831312.75457520
0.3600000000000001 523570.07854259 -413753.70430842 -14.36444602 -936150.50463346 608378.85260372 -774115.85600663 77651.90290630 -662788.00302138 -14.36444602 -231769.55783095 1092147.18224411 -774115.85600663
0.3900000000000001 464645.60688885 -369912.86676308 -14.72344587 -836931.12036123 543287.65633800 -692005.32112110 66986.16294331 -590121.95601597 -14.72344587 -207637.28466193 975962.05652503 -692005.32112110
0.42000000000000015 395116.18482639 -317336.99551976 -14.52464252 -717950.29122680 465449.76425129 -593645.12302979 54998.19219391 -503780.47510069 -14.52464252 -178544.83487756 836790.20408510 -593645.12302979
0.4500000000000002 322409.69314441 -261259.90208551 -13.40959023 -591055.55352607 382681.88293002 -488848.68864810 43239.43192588 -412716.72875948 -13.40959023 -147342.43549920 688536.34441331 -488848.68864810
0.4800000000000002 253930.71286011 -207022.00699159 -11.07468562 -468335.55329940 302928.38241492 -387612.40520397 33169.46401632 -325942.79401352 -11.07468562 -116960.53218930 545365.95902823 -387612.40520397
0.5100000000000002 196269.76606661 -159565.34115965 -7.38431043 -360975.94408636 233498.07138079 -299170.44163895 25953.94775126 -251613.41730393 -7.38431043 -90140.46824134 420356.60757602 -299170.44163895
0.5400000000000003 154557.81090018 -122987.44751731 -2.44462820 -278248.82958939 180398.64100627 -231162.29236465 22323.61803255 -196254.13431318 -2.44462820 -69190.53188751 324312.73663225 -231162.29236465
0.5700000000000003 132030.06967960 -100195.28228726 3.37743755 -226729.03941319 147830.44546771 -188989.23812072 22510.59404276 -164208.12113920 3.37743755 -55789.73080493 264853.55171703 -188989.23812072
0.6000000000000003 129824.80436959 -92687.63042159 9.49876564 -209802.13490033 137879.51505394 -175412.06246912 26259.94753273 -157340.05153917 9.49876564 -50856.97221409 245848.05237679 -175412.06246912
0.6300000000000003 147009.91398877 -100480.28914804 15.20210220 -227495.82994392 150426.33666377 -190415.99773923 32901.41325094 -175002.00091527 15.20210220 -54496.36132101 267231.32676901 -190415.99773923
0.6600000000000004 180808.90193641 -122172.61403394 19.74877162 -276632.26035030 183265.01270479 -231340.20710112 41462.11679944 -214240.28451682 19.74877162 -66020.61395086 325196.48042645 -231340.20710112
0.6900000000000004 226984.36413701 -155141.66794275 22.47411695 -351268.24228097 232408.19639770 -293245.46702154 50800.45765769 -270203.90855151 22.47411695 -84046.74445620 412721.56780851 -293245.46702154
0.7200000000000004 280333.80193169 -195838.44995498 22.88261711 -443366.76043360 292539.86009488 -369473.08328913 59747.23636147 -336704.62832193 22.88261711 -106650.72401486 520364.56169576 -369473.08328913
0.7500000000000004 335250.09156972 -240154.26601610 20.71762594 -543626.98860296 357567.68621036 -452334.40214655 67242.90311150 -406872.32317323 20.71762594 -131563.79442465 637240.86572971 -452334.40214655
0.7800000000000005 386295.31227043 -283821.23677038 16.00771398 -642391.26215561 421221.28030201 -533862.10713320 72460.11368190 -473843.95601209 16.00771398 -156390.79396359 752087.64132685 -533862.10713320
0.8100000000000005 428733.85788977 -322810.36561377 9.08761018 -730546.14708396 477640.86405559 -606553.95268696 74899.21967532 -531422.01680093 9.08761018 -178831.04062727 854317.22851828 -606553.95268696
0.8400000000000005 458970.91980834 -353692.58030387 0.58587429 -800339.24452321 521903.64394883 -664043.69781928 74443.02777567 -574639.87175214 0.58587429 -196883.70128989 934966.91281427 -664043.69781928
0.8700000000000006 474850.12551049 -373932.25717404 -8.62425002 -846042.88022948 550441.84018037 -701642.84390687 71359.70904360 -600179.77854791 -8.62425002 -209021.49994452 987463.81562520 -701642.84390687
0.9000000000000006 475780.47729896 -382089.26810643 -17.52455988 -864410.07578665 561317.34734601 -716709.96074276 66249.68935760 -606605.51435093 -17.52455988 -214318.92360871 1008141.52902072 -716709.96074276
0.9300000000000006 462686.75703323 -377913.10992290 -25.08346891 -854886.26680947 554332.43037062 -708818.92184719 59944.02073764 -594393.86618919 -25.08346891 -212523.65585755 996468.09695092 -708818.92184719
0.9600000000000006 437801.17387761 -362323.09277073 -30.41687678 -819562.29688438 530971.42659379 -679715.87766010 53371.06298162 -565773.29473895 -30.41687678 -204064.56137100 954971.55409253 -679715.87766010
0.9900000000000007 404336.11661522 -337278.07996393 -32.92277781 -762878.35334362 494187.01612321 -633073.38253442 47417.19244918 -524400.42742533 -32.92277781 -189993.46659463 888879.44714477 -633073.38253442
1.0200000000000007 366087.54013243 -305551.18538019 -32.39722278 -691112.66543947 448056.18724276 -574069.23292267 42805.66695362 -474920.29731746 -32.39722278 -171866.88394421 805514.02064810 -574069.23292267
1.0500000000000007 327020.27543575 -270433.49292365 -29.07237325 -611710.53542335 397345.70828495 -508835.12377365 40012.89763983 -422463.61105239 -29.07237325 -151578.82291745 713510.51252477 -508835.12377365
1.0800000000000007 290879.73941599 -235398.25778298 -23.58248637 -532524.73530376 347031.99902795 -443832.72446596 39231.33189298 -372134.74060866 -23.58248637 -131163.17168147 621940.53128425 -443832.72446596
1.1100000000000008 260863.64776112 -203760.40471078 -16.86073469 -461046.04512747 301823.42057368 -385221.79705989 40378.09038864 -328538.81820525 -16.86073469 -112587.39754031 539430.17235744 -385221.79705989
1.1400000000000008 239375.39402755 -178365.51141779 -9.99230119 -403701.08269834 265730.25917017 -338283.41181083 43140.50171276 -295387.42701940 -9.99230119 -97560.10492266 473359.44137403 -338283.41181083
1.1700000000000008 227869.97147751 -161338.09219610 -4.06027274 -365284.47572511 241720.88788669 -306952.36369688 47045.14300497 -275211.66111610 -4.06027274 -87372.65086828 429217.60882651 -306952.36369688
1.2000000000000008 226795.29431449 -153911.02172182 0.01159005 -348575.02711959 231492.41772935 -293500.85213852 51536.96339212 -269200.01770982 0.01159005 -82789.90705885 410169.62379824 -293500.85213852
1.2300000000000009 235623.61829135 -156348.92036529 1.56716413 -354163.50861112 235371.31077932 -298398.75060585 56055.67648003 -277166.44012301 1.56716413 -83998.76863892 416864.06853657 -298398.75060585
1.260000000000001 252964.11274574 -167967.51466345 0.27949947 -380497.61030671 252346.90132619 -320353.76489286 60101.67088177 -297643.60815693 0.27949947 -90616.23533399 447488.64561231 -320353.76489286
1.290000000000001 276739.94809973 -187242.55259843 -3.85240806 -424128.66023770 280227.22534376 -356516.94532975 63284.21525751 -328085.17259556 -3.85240806 -101753.68043597 498054.82306330 -356516.94532975
1.320000000000001 304412.92109022 -211992.82348313 -10.54846890 -480125.41537788 315897.27306980 -402823.76713419 65350.87773590 -365154.00383150 -10.54846890 -116126.83308772 562873.04097970 -402823.76713419
1.350000000000001 333234.17808606 -239616.54072384 -19.32399116 -542608.06286475 355650.42448623 -454434.95334588 66197.66621749 -405066.62787807 -19.32399116 -132199.01389208 635164.66766425 -454434.95334588
1.380000000000001 360499.61895320 -267356.62887510 -29.57608755 -605347.25757341 395560.03189051 -506228.84405930 65862.03990422 -443961.41044973 -29.57608755 -148341.96988669 707748.33171898 -506228.84405930
1.410000000000001 383788.91262740 -292568.86467401 -40.65874053 -662369.25960149 431855.70023201 -553297.51264432 64502.31448800 -478257.17083809 -40.65874053 -162997.70098561 773733.88924185 -553297.51264432
1.440000000000001 401169.24219621 -312967.98127107 -51.95256941 -708511.50157595 461270.03187453 -591402.83620173 62367.70970936 -504971.27341145 -51.95256941 -174826.11981641 827160.45480963 -591402.83620173
1.470000000000001 411348.14721047 -326829.57096493 -62.90749113 -739878.60771462 481325.52307971 -617350.59272037 59763.65839945 -521970.47024264 -62.90749113 -182824.63944204 863521.72209769 -617350.59272037
1.500000000000001 413763.26317708 -333130.67623800 -73.06519474 -754159.77193930 490537.15357521 -629250.42058618 57015.84900923 -528133.76938754 -73.06519474 -186409.34111940 880133.63655336 -629250.42058618
1.5300000000000011 408603.16512338 -331617.61166828 -82.06046691 -750782.28400609 488514.46244576 -626640.82132491 54437.00690150 -523415.13084456 -82.06046691 -185451.35511233 876315.13331853 -626640.82132491
1.5600000000000012 396757.61405764 -322797.39276390 -89.61438815 -730892.26016829 475955.87564328 -610472.27190721 52297.77401486 -508802.22476024 -89.61438815 -180267.24626882 853370.50069471 -610472.27190721
1.5900000000000012 379704.26305944 -307856.08460133 -95.54788838 -697170.25535197 454539.01263060 -582954.72739595 50804.33420363 -486178.58430591 -95.54788838 -171566.19705600 814381.43334587 -582954.72739595
1.6200000000000012 359343.00025096 -288514.54315634 -99.77492175 -653505.84842355 426720.23172342 -547289.52304506 50083.28231258 -458104.46218617 -99.77492175 -160361.64744423 763835.18648648 -547289.52304506
1.6500000000000012 337795.73006012 -266838.37684427 -102.33172100 -604568.15038793 395465.66705785 -507316.24909509 50174.42563397 -427540.87712877 -102.33172100 -147857.78392565 707130.69373178 -507316.24909509
1.6800000000000013 317192.26017362 -245022.49626296 -103.39695682 -555318.91072301 363942.70982311 -467112.82919634 51031.72945786 -397545.86675945 -103.39695682 -135323.40941404 650016.12557270 -467112.82919634
1.7100000000000013 299464.32744591 -225172.66181777 -103.30675538 -510518.73520477 335203.91726576 -430590.20239415 52532.14055130 -370974.37276964 -103.30675538 -123966.29660716 598016.22256499 -430590.20239415
1.7400000000000013 286168.38217796 -209105.75817966 -102.54758710 -474275.54206741 311895.26115372 -401121.64821962 54491.50400522 -350211.70319321 -102.54758710 -114820.19776504 555906.70612853 -401121.64821962
1.7700000000000014 278353.86795011 -198187.66399175 -101.72419227 -449677.72622639 296016.82645028 -381241.72133871 56686.06644094 -336965.74875311 -101.72419227 -108654.66423491 527285.67489154 -381241.72133871
1.8000000000000014 276488.82667097 -193222.56767323 -101.49789116 -438543.79099043 288757.56962641 -372440.83906307 58878.13638133 -332136.11214138 -101.49789116 -105914.85285481 514279.72405837 -372440.83906307
1.8300000000000014 280446.82850766 -194402.18148875 -102.51523551 -441307.23445700 290416.88890527 -375071.01681325 60842.75339188 -335768.95500818 -102.51523551 -106695.58655521 517407.08958724 -375071.01681325
1.8600000000000014 289553.98052550 -201316.39259675 -105.32166548 -457040.69210563 300416.88970664 -388365.84721221 62393.39677996 -347097.76951831 -105.32166548 -110749.75277155 535603.39256062 -388365.84721221
1.8900000000000015 302686.08527288 -213021.50219512 -110.27893307 -483609.97600268 317399.32898285 -410567.23506109 63402.43472655 -364660.33220798 -110.27893307 -117528.67561313 566399.11134879 -410567.23506109
1.9200000000000015 318403.41951407 -228156.52623878 -117.52032974 -517936.93158972 339393.75495998 -439141.57469608 63814.19021598 -386476.24396679 -117.52032974 -126249.09092948 606224.34217861 -439141.57469608
1.9500000000000015 335106.24030487 -245094.02716892 -126.92233477 -556340.67480747 364037.10577587 -471060.36259263 63648.24629804 -410263.54357697 -126.92233477 -135979.15770862 650805.36990390 -471060.36259263
1.9800000000000015 351194.11860347 -262109.60878449 -138.12039388 -594920.98707001 388820.96407937 -503115.51139696 62992.26099168 -433671.22456301 -138.12039388 -145734.72385939 695610.60459542 -503115.51139696
2.0100000000000016 365213.57749136 -277553.06210711 -150.55768425 -629945.46875537 411341.47599239 -532237.83668323 61985.34487051 -454504.64958057 -150.55768425 -154576.36567716 736301.05979216 -532237.83668323
2.0400000000000014 375981.59854608 -290004.73866775 -163.55897217 -658203.25594779 429527.75508184 -555788.04355611 60794.82064509 -470923.45522149 -163.55897217 -161697.99735354 769141.97400595 -555788.04355611
2.070000000000001 382676.60688670 -298402.68746012 -176.41504294 -677292.69157882 441827.77279110 -571793.24754194 59590.65990370 -481595.78755838 -176.41504294 -166498.84080634 791337.66932061 -571793.24754194
2.100000000000001 384891.97385528 -302129.59065601 -188.46927883 -685817.83438207 447335.53268333 -579108.46403086 58521.84238736 -485797.60708733 -188.46927883 -168632.45272415 801260.42997631 -579108.46403086
2.130000000000001 382651.40778849 -301052.40839017 -199.18640497 -683478.27850368 445849.77472358 -577490.07019109 57699.20581259 -483451.60474305 -199.18640497 -168028.72642613 798555.52462120 -577490.07019109
2.1600000000000006 376386.95906420 -295513.03129166 -208.20616481 -671047.71278908 437861.09228093 -567577.70980304 57186.50274915 -475105.03945981 -208.20616481 -164887.84064329 784116.93578247 -567577.70980304
2.1900000000000004 366884.22539173 -286272.56132863 -215.37218278 -650247.87195794 424471.88013373 -550790.07240093 57001.05430175 -461851.59306798 -215.37218278 -159647.73484801 759941.62457914 -550790.07240093
2.22 355199.34304759 -274416.77170365 -220.72983475 -623534.75248768 407259.76430269 -529148.56593270 57121.90399898 -445205.82428493 -220.72983475 -152929.51074665 728881.79283238 -529148.56593270
2.25 342554.76222019 -261233.97488008 -224.51444055 -593822.20135382 388100.26110411 -505049.73515973 57502.48017962 -426943.11040766 -224.51444055 -145467.37898943 694324.03180340 -505049.73515973
2.28 330222.26649876 -248078.57064299 -227.11821100 -564173.28278860 368968.26021619 -481011.37416805 58084.36437134 -408920.44350879 -227.11821100 -138030.79518262 659830.71286556 -481011.37416805
2.3099999999999996 319402.78439753 -236234.69500149 -229.04836957 -537491.84883647 351738.96210925 -459419.12791300 58808.71999027 -392895.02956445 -229.04836957 -131347.12582980 628781.13645973 -459419.12791300
2.3399999999999994 311113.75090470 -226793.51280856 -230.87668040 -516245.07724451 338008.14058682 -442298.72636204 59623.41214904 -380357.87382115 -230.87668040 -126032.54656857 604048.24317896 -442298.72636204
2.369999999999999 306094.58144034 -220555.76389283 -233.18645218 -502243.08618339 328948.70814321 -431135.32932951 60485.07794252 -372398.03049932 -233.18645218 -122537.62985371 587741.35423495 -431135.32932951
2.399999999999999 304740.15535087 -217967.80841192 -236.51686621 -496494.49512493 325216.15143683 -426755.27411737 61357.31494000 -369610.34575688 -236.51686621 -121112.07829226 581037.17035700 -426755.27411737
2.429999999999999 307069.09468490 -219095.91609886 -241.31379022 -499148.23445258 326909.70736720 -429278.72773647 62206.43114073 -372054.84714829 -241.31379022 -121791.03048365 584111.17231377 -429278.72773647
2.4599999999999986 312731.12814575 -223639.06951057 -247.88188336 -509522.83561596 333590.47464212 -438143.98442787 62997.59881080 -379271.00398915 -247.88188336 -124402.96547476 596171.13899212 -438143.98442787
2.4899999999999984 321052.15044081 -230977.19062785 -256.35268134 -526215.46692777 344351.67121408 -452197.14312932 63692.61489885 -390343.69048359 -256.35268134 -128597.12320147 615583.92685827 -452197.14312932
2.5199999999999982 331112.54826868 -240248.16557661 -266.67115850 -547276.09936951 357931.42120952 -469835.15918673 64250.82116989 -404013.03526359 -266.67115850 -133886.90590852 640078.37618249 -469835.15918673
2.549999999999998 341849.79800644 -250444.55562427 -278.60034373 -570426.15656995 372855.05653485 -489185.57949062 64633.26672443 -418815.35391078 -278.60034373 -139703.86460130 667000.54235228 -489185.57949062
2.579999999999998 352173.62353435 -260519.69242913 -291.72911195 -593298.88791001 387591.03615127 -508303.03882711 64809.11620691 -433239.59850545 -291.72911195 -145457.41692192 693593.91690129 -508303.03882711
2.6099999999999977 361080.82755281 -269492.28993567 -305.53001000 -613675.47820174 400704.90124346 -525363.72810505 64762.87602804 -445882.52741004 -305.53001000 -150592.93916041 717275.24500828 -525363.72810505
2.6399999999999975 367757.07706101 -276539.47345892 -319.42116297 -629695.28196505 410995.88771315 -538838.21925337 64500.58607062 -455586.45996774 -319.42116297 -154643.82471691 735879.78320041 -538838.21925337
2.6699999999999973 371654.75881314 -281069.68169101 -332.83080337 -640020.70998718 417603.57967382 -547626.88433893 64053.32230737 -461545.87812668 -332.83080337 -157272.66109663 747853.30716690 -547626.88433893
2.699999999999997 372539.17857543 -282769.22435991 -345.26298377 -643942.53943013 420075.57495170 -551146.53677381 63476.94337260 -463373.01548411 -345.26298377 -158297.84866635 752374.42398472 -551146.53677381
2.729999999999997 370499.14476047 -281619.18771456 -356.35542419 -641418.19354094 418391.31957382 -549362.04914819 62847.62033873 -461117.29502916 -356.35542419 -157703.81496898 749398.49348946 -549362.04914819
2.7599999999999967 365922.13247776 -277882.47358492 -365.91787367 -633042.34046453 412941.85906932 -542762.31471133 62253.43981648 -455238.60270606 -365.91787367 -155634.54293697 739622.52050436 -542762.31471133
2.7899999999999965 359438.92418765 -272063.53463355 -373.95123151 -619955.91738980 404469.75091056 -532285.51345603 61783.73046253 -446539.67096845 -373.95123151 -152371.72956937 724378.33687675 -532285.51345603
2.8199999999999963 351844.95546132 -264846.15281446 -380.63584035 -603705.55534656 393977.21759677 -519203.48654399 61517.44330671 -436066.46455925 -380.63584035 -148300.32982986 705468.25422123 -519203.48654399
2.849999999999996 344008.34606156 -257016.61488176 -386.30378537 -586069.76370368 382613.12694536 -504978.76920185 61512.44302440 -424988.82554540 -386.30378537 -143865.56752921 684962.24079732 -504978.76920185
