# Level force for level 25
# start: 0.0, 0.0, 113.42583518518519
# center: 0.0, 0.0, 115.74064814814815
# end: 0.0, 0.0, 118.0554611111111
# as part of FluidModelPart.Drag_structure
# Time Fx Fy Fz Mx My Mz Fx' Fy' Fz' Mx' My' Mz'
0.03 6408.33509901 -20955.13870145 -0.66068653 43374.61355526 -14883.48964624 -285867.24460350 -10286.14347188 -19348.89788113 -0.66068653 20146.26691970 -41194.69983285 -285867.24460350
0.06 18263.58523194 -59927.04326689 -1.81937817 124038.22384921 -42560.90042234 -817482.71220565 -29460.51370419 -55289.12363677 -1.81937817 57613.16790806 -117803.37051215 -817482.71220565
0.09 34351.17899523 -112559.06808781 -3.40248284 232973.09857143 -79951.57687233 -1535339.62248327 -55301.32871965 -103881.23193821 -3.40248284 108202.55566092 -221271.16000688 -1535339.62248327
0.12 53219.58684074 -173481.41372336 -5.22208826 359065.93144639 -123264.43065135 -2366084.95844594 -85037.95330659 -160301.81480065 -5.22208826 166736.84022614 -341059.06981148 -2366084.95844594
0.15 73205.51433394 -236815.01475539 -6.95515010 490149.33437683 -168340.34005087 -3229467.60099297 -115689.38721455 -219217.61842610 -6.95515010 227553.32213470 -465622.51412915 -3229467.60099297
0.18 92465.57307378 -296707.70590031 -8.15906564 614110.13388966 -211017.31252633 -4045727.72654125 -144420.99712564 -275187.06461918 -8.15906564 285029.66743363 -583453.21270388 -4045727.72654125
0.21 109068.97578609 -347851.39214909 -8.32898536 719959.19962954 -247489.97776973 -4742685.99684713 -168844.66583839 -323091.49062922 -8.32898536 334086.19067900 -684089.87379237 -4742685.99684713
0.24 121182.81391453 -385936.86411304 -6.99641745 798773.40288373 -274637.60701362 -5261911.30736463 -187209.38424198 -358587.76320643 -6.99641745 370619.97552236 -759016.20409872 -5261911.30736463
0.27 127337.33207696 -408008.99285858 -3.83750827 844432.55496437 -290294.09571134 -5563461.90608892 -198464.83462557 -378547.01664522 -3.83750827 391835.06225408 -802372.90948589 -5563461.90608892
0.30000000000000004 126711.60966553 -412692.51007409 1.20320519 854088.90298712 -293432.82325151 -5628823.90979365 -202219.03396873 -381416.31086784 1.20320519 396443.71589451 -811420.39418223 -5628823.90979365
0.33000000000000007 119357.73016301 -400268.47958186 7.84407162 828327.23963949 -284244.12691638 -5461832.92218345 -198633.89582227 -367431.21659286 7.84407162 384724.85853559 -786706.75784564 -5461832.92218345
0.3600000000000001 106282.72291017 -372594.63273820 15.50549771 771000.52246765 -264091.72790333 -5087531.23214642 -188310.95735014 -338617.42553564 15.50549771 358438.64607954 -731920.74939096 -5087531.23214642
0.3900000000000001 89341.85717273 -332878.07335833 23.39614847 688757.38570154 -235347.95642491 -4549094.28518673 -172206.10992935 -298554.57603062 23.39614847 320608.88209543 -653441.15394833 -4549094.28518673
0.42000000000000015 70958.64363395 -285324.12965507 30.78713193 590312.63122163 -201126.47071479 -3903160.59863734 -151579.28881788 -251929.96501262 30.78713193 275196.17323834 -559631.95587543 -3903160.59863734
0.4500000000000002 53725.10500842 -234699.40303875 37.13408289 485539.51263466 -164941.93387507 -3214027.22699085 -127968.15335772 -203946.92550055 37.13408289 226696.72197290 -459959.84186306 -3214027.22699085
0.4800000000000002 39980.26404694 -185855.77172414 42.17165903 384482.73401016 -130340.66987786 -2547324.69611779 -103149.56068758 -159690.19233002 42.17165903 179705.57693269 -364035.12000276 -2547324.69611779
0.5100000000000002 31456.36107220 -143265.55176282 45.89335743 296396.18457916 -100545.93053759 -1963804.81066501 -79061.03693632 -123547.04938753 45.89335743 138487.04272991 -280680.46133758 -1963804.81066501
0.5400000000000003 29056.95275612 -110614.52315977 48.46588625 228901.71850143 -78156.96113155 -1513851.47901189 -57669.91108952 -98762.64775846 48.46588625 106592.64016456 -217123.27459067 -1513851.47901189
0.5700000000000003 32789.85893740 -90490.54105642 50.11216654 187346.21536840 -64930.12409085 -1233221.62997992 -40800.54360545 -87172.40682302 50.11216654 86561.24826871 -178386.31036455 -1233221.62997992
0.6000000000000003 41839.44268486 -84192.76940679 51.04535388 174408.40957150 -61657.56182069 -1140370.92040425 -29948.32453088 -89118.23181795 51.04535388 79726.88902913 -166923.84917880 -1140370.92040425
0.6300000000000003 54740.50347625 -91672.44591432 51.42008207 189977.40386068 -68146.30928080 -1235535.16860243 -26114.82694035 -103529.58936760 51.42008207 86147.59313681 -182521.02794739 -1235535.16860243
0.6600000000000004 69612.14456715 -111602.28439870 51.34705148 231297.45124134 -83291.44423199 -1501553.96781112 -29691.51261786 -128137.95157059 51.34705148 104656.05121265 -222447.94127518 -1501553.96781112
0.6900000000000004 84414.26243460 -141560.35994807 50.89601029 293349.13117727 -105228.86221913 -1906256.58300103 -40408.39307012 -159788.18786286 50.89601029 133021.11785894 -281837.20196232 -1906256.58300103
0.7200000000000004 97203.74536299 -178304.96950897 50.13005137 369418.88839866 -131549.50901192 -2406099.53555752 -57347.22555615 -194814.08056195 50.13005137 168199.05120100 -354238.15096918 -2406099.53555752
0.7500000000000004 106372.56128861 -218111.12020377 49.10830473 451795.84152608 -159553.00314840 -2950659.25184127 -79011.09272892 -229444.61156764 49.10830473 206646.89277006 -432288.91373989 -2950659.25184127
0.7800000000000005 110848.84975774 -257135.82191587 47.87471995 532527.93308970 -186516.64181024 -3487539.98888558 -103440.51001226 -260204.45671311 47.87471995 244666.93043082 -508441.29488715 -3487539.98888558
0.8100000000000005 110236.69282061 -291778.51835553 46.43888104 604167.56280605 -209954.67407209 -3967249.95895198 -128369.45590473 -284267.68196279 46.43888104 278750.60685492 -575671.35441129 -3967249.95895198
0.8400000000000005 104867.64541866 -319004.59707421 44.76450525 660440.29520129 -227843.46078070 -4347624.77570377 -151417.69061826 -299722.93702346 44.76450525 305892.15513864 -628111.46747272 -4347624.77570377
0.8700000000000006 95744.39333705 -336603.98105703 42.79833676 696779.06182826 -238791.49330045 -4597430.71323792 -170313.44779060 -305716.46736904 42.79833676 323846.11540515 -661548.28380998 -4597430.71323792
0.9000000000000006 84375.93040570 -343363.22195457 40.50583646 710679.39072649 -242139.14243483 -4698853.39561149 -183131.67009535 -302457.25521293 40.50583646 331307.98682586 -673744.44603859 -4698853.39561149
0.9300000000000006 72529.11251370 -339137.79726463 37.94194856 701848.91052483 -237981.68242178 -4648673.24118016 -188520.80891061 -291092.46349437 37.94194856 328003.66256188 -664560.58543912 -4648673.24118016
0.9600000000000006 61941.13686961 -324821.30409032 35.27679825 672143.56902012 -227117.34300559 -4458043.76199146 -185884.34888121 -273482.34471103 35.27679825 314681.06222073 -635873.48894938 -4458043.76199146
0.9900000000000007 54052.37795100 -302217.50334055 32.81291953 625303.35931219 -210931.38033451 -4150917.19443762 -175479.24301696 -251920.84899378 32.81291953 293005.23626880 -591307.25506795 -4150917.19443762
1.0200000000000007 49806.93490197 -273831.17637789 30.92402917 566519.42783443 -191231.54648455 -3761295.69921837 -158409.06029779 -228846.70313640 30.92402917 265368.60579964 -535810.85239166 -3761295.69921837
1.0500000000000007 49553.45554940 -242600.73887423 29.96639596 501879.93245797 -170054.65309783 -3329603.63629581 -136505.04312863 -206584.21202904 29.96639596 234635.90520468 -475129.50196029 -3329603.63629581
1.0800000000000007 53052.07772236 -211600.70704953 30.18747422 437753.00790668 -149464.21678031 -2898564.67487796 -112110.81094508 -187137.77877211 30.18747422 203850.95914553 -415225.28160572 -2898564.67487796
1.1100000000000008 59571.84815123 -183744.07570098 31.64467156 380169.11584780 -131358.13535178 -2509009.75478780 -87803.02413547 -172050.33972657 31.64467156 175935.93154241 -361704.38808493 -2509009.75478780
1.1400000000000008 68048.60023680 -161513.61113628 34.20720337 334264.34943852 -117302.68194298 -2196037.72739509 -66089.74301070 -162324.99636608 34.20720337 153415.06634364 -319306.11005014 -2196037.72739509
1.1700000000000008 77268.89077611 -146746.48350661 37.53824919 303833.57520643 -108406.68682373 -1985908.29906591 -49128.07696026 -158402.79024535 37.53824919 138187.67800160 -291497.88475964 -1985908.29906591
1.2000000000000008 86048.36510584 -140490.52441373 41.17248841 291033.74311162 -105243.97797110 -1893926.89636206 -38496.42002904 -160187.18498176 41.17248841 131373.20280592 -280210.66381074 -1893926.89636206
1.2300000000000009 93380.01970835 -142942.27349371 44.58185931 296256.36081514 -107828.21270557 -1923477.68100557 -35045.80574252 -167105.09606873 44.58185931 133238.82129469 -285730.94210937 -1923477.68100557
1.260000000000001 98539.88347975 -153467.94792135 47.27665210 318173.33240361 -115640.20130975 -2066242.86378306 -38840.00684411 -178196.44649583 47.27665210 143212.55041141 -306752.49145922 -2066242.86378306
1.290000000000001 101141.06151788 -170701.50903260 48.85017436 353941.69394022 -127701.80083118 -2303524.86165249 -49186.66414003 -192221.72505143 48.85017436 159975.76259232 -340573.38126724 -2303524.86165249
1.320000000000001 101139.89752514 -192706.34880062 49.03220128 399540.80624070 -142687.80982036 -2608489.65026056 -64747.25862608 -207780.67340316 49.03220128 181622.49553690 -383413.53137018 -2608489.65026056
1.350000000000001 98799.70321552 -217182.75717818 47.72918453 450203.94543146 -159063.88370999 -2949075.83017816 -83709.46023457 -223433.34048040 47.72918453 205867.11191833 -430817.41354473 -2949075.83017816
1.380000000000001 94623.17828077 -241700.02076334 45.03822046 500900.09007082 -175237.20169113 -3291267.61770992 -103999.03267493 -237816.41471445 45.03822046 230278.43675408 -478101.26401798 -3291267.61770992
1.410000000000001 89266.34929757 -263930.93518063 41.23681989 546820.08284383 -189706.13542892 -3602411.59855699 -123506.51311105 -249748.19495121 41.23681989 252517.69387338 -520802.68346234 -3602411.59855699
1.440000000000001 83447.31739373 -281867.28111060 36.73964746 583822.39362713 -201195.66753523 -3854265.23326663 -140304.10186698 -258316.42986885 36.73964746 270557.95268279 -555091.59440183 -3854265.23326663
1.470000000000001 77861.48199762 -293996.98609531 32.06296026 608797.52811962 -208766.97471510 -4025504.05870734 -152830.88060265 -262943.64443015 32.06296026 282864.31699415 -578105.40401184 -4025504.05870734
1.500000000000001 73111.17838296 -299427.77140347 27.76014049 619920.52985496 -211891.88986688 -4103468.93419128 -160029.99761984 -263424.81765009 27.76014049 288519.81825389 -588180.20266051 -4103468.93419128
1.5300000000000011 69655.06690622 -297947.10474710 24.35104738 616771.64810702 -210486.53810215 -4085013.69348202 -161426.84804818 -259933.98835496 24.35104738 287286.95637956 -584959.87326059 -4085013.69348202
1.5600000000000012 67777.69355953 -290014.80924812 22.24116270 600317.43713056 -204901.53436751 -3976400.78921426 -157145.37153474 -252997.50499300 22.24116270 279601.26623276 -569375.79508634 -3976400.78921426
1.5900000000000012 67579.02423178 -276690.66427847 21.70158103 572759.10911231 -195870.90983685 -3792288.59558174 -147864.25870206 -243435.43130258 21.70158103 266500.20145686 -543503.49862250 -3792288.59558174
1.6200000000000012 68981.99044406 -259506.51450663 22.85038017 537266.58417818 -184425.92733574 -3553944.68608342 -134721.18294698 -232276.44939246 22.85038017 249496.02113161 -510313.66882304 -3553944.68608342
1.6500000000000012 71754.37273361 -240297.18498712 25.60882097 497628.39325378 -171783.04994987 -3286889.55315415 -119177.76546470 -220653.77254416 25.60882097 230407.45186825 -473345.37089317 -3286889.55315415
1.6800000000000013 75542.30161201 -221008.89285866 29.70483835 457857.84090749 -159218.28448171 -3018224.79186300 -102860.41310660 -209693.36057918 29.70483835 211170.05547921 -436338.71277102 -3018224.79186300
1.7100000000000013 79911.76796304 -203504.83951828 34.73003025 421793.36260167 -147941.03583544 -2773929.63707649 -87393.49900438 -200405.80505093 34.73003025 193642.83730012 -402863.05661012 -2773929.63707649
1.7400000000000013 84394.71358984 -189387.63445833 40.22279925 392733.42858887 -138979.95170981 -2576394.81948912 -74241.20632270 -193593.35487403 40.22279925 179430.80425085 -375978.13685682 -2576394.81948912
1.7700000000000014 88535.95588593 -179855.95150914 45.65464227 373143.47646823 -133091.40242471 -2442427.60228004 -64572.98816310 -189781.73773465 45.65464227 169742.44939407 -357962.11573835 -2442427.60228004
1.8000000000000014 91938.03135228 -175607.41430743 50.52659805 364457.05583568 -130699.29023831 -2381893.17898599 -59163.18806528 -189183.19890156 50.52659805 165291.70120892 -350128.41005647 -2381893.17898599
1.8300000000000014 94299.89807059 -176795.32838388 54.41036390 366986.56082944 -131870.14572846 -2397095.54944358 -58333.07819143 -191693.27297326 54.41036390 166252.41148617 -352744.96004748 -2397095.54944358
1.8600000000000014 95447.00664361 -183040.39945305 56.97910001 379948.14081237 -136324.48450744 -2482917.95510611 -61937.88204270 -196920.33332600 56.97910001 172267.93943068 -365059.87430462 -2482917.95510611
1.8900000000000015 95347.83239703 -193493.62820545 58.04318907 401590.44784826 -143481.11929904 -2627674.41794045 -69399.55776108 -204241.75547984 58.04318907 182510.85650466 -385423.80136184 -2627674.41794045
1.9200000000000015 94114.49227369 -206941.22872097 57.56996407 429410.01671234 -152528.29258677 -2814552.32091313 -79780.55044102 -212878.54183032 57.56996407 195784.94471581 -411492.52473763 -2814552.32091313
1.9500000000000015 91985.74647725 -221939.50455704 55.68722626 460428.61851194 -162513.21919796 -3023477.87247408 -91891.18357890 -221978.67379203 55.68722626 210657.99907481 -440486.39772948 -3023477.87247408
1.9800000000000015 89293.15032240 -236965.18373673 52.67459702 491502.97621541 -172440.37607357 -3233207.28422877 -104419.89621888 -230699.48043183 52.67459702 225611.32818331 -469478.84672727 -3233207.28422877
2.0100000000000016 86414.44723117 -250566.11139175 48.92373025 519635.40999312 -181368.68903589 -3423434.87805067 -116072.75487101 -238281.23813030 48.92373025 239190.69223860 -495684.75206298 -3423434.87805067
2.0400000000000014 83721.08463696 -261497.93197880 44.89423659 542255.86907425 -188498.58626263 -3576715.45263151 -125707.21429338 -244106.70764356 44.89423659 250144.17357022 -516721.43075099 -3576715.45263151
2.070000000000001 81528.57686467 -268834.40243066 41.06908168 557450.04594834 -193241.38681768 -3680024.46645329 -132445.21941346 -247744.03853645 41.06908168 257534.41263815 -530819.00268750 -3680024.46645329
2.100000000000001 80057.88325351 -272042.03178403 37.89945748 564114.09173594 -195265.40352854 -3725819.99535184 -135753.29330625 -248972.23757825 37.89945748 260815.40866322 -536962.39059553 -3725819.99535184
2.130000000000001 79414.63979721 -271013.34789321 35.76250486 562024.08214602 -194515.80096446 -3712523.50809965 -135480.74576126 -247790.00641346 35.76250486 259867.59776570 -534954.48158550 -3712523.50809965
2.1600000000000006 79588.22205050 -266057.49874322 34.92033789 551817.05422911 -191207.34030010 -3644395.53972727 -131853.69003237 -244408.43306135 34.92033789 254989.57408094 -525397.58795864 -3644395.53972727
2.1900000000000004 80469.81149250 -257850.67800285 35.49396804 534889.23114598 -185791.99148603 -3530843.36835535 -125427.21356221 -239228.71233652 35.49396804 246849.02545706 -509598.57959691 -3530843.36835535
2.22 81884.04308929 -247353.05833763 37.45579316 513224.58343281 -178905.29850699 -3385253.15622926 -117004.26275836 -232805.78703718 37.45579316 236399.43345249 -489409.73298148 -3385253.15622926
2.25 83626.39200297 -235701.68385072 40.63005408 489173.45289810 -171297.23398590 -3223483.63862201 -107533.47011647 -225799.04785939 40.63005408 224772.42997076 -467023.30147061 -3223483.63862201
2.28 85498.56183481 -224090.92786078 44.71893288 465205.28053063 -163754.73506536 -3062187.37149430 -97999.60183765 -218912.82754783 44.71893288 213157.72489088 -444741.89212312 -3062187.37149430
2.3099999999999996 87335.19966428 -213652.87405969 49.33301814 443660.94757499 -157023.53884783 -2917135.28757680 -89320.08414871 -212830.70798649 49.33301814 202683.25545271 -424748.07370313 -2917135.28757680
2.3399999999999994 89018.22766556 -205349.40888210 54.03893202 426529.36679473 -151736.99911382 -2801711.90921540 -82258.56710166 -208149.35196471 54.03893202 194307.54660548 -408896.06866604 -2801711.90921540
2.369999999999999 90478.30160044 -199886.18166027 58.40761202 415269.28579418 -148358.58560354 -2725722.19882355 -77363.05390555 -205318.69512937 58.40761202 188734.36607605 -398545.08993106 -2725722.19882355
2.399999999999999 91686.18758915 -197655.85371331 62.06594293 410691.89513693 -147143.41774497 -2694612.39458721 -74931.86951647 -204595.71948733 62.06594293 186356.91553524 -394449.13252411 -2694612.39458721
2.429999999999999 92638.22782110 -198714.93169207 64.73369852 412912.85627917 -148121.90371667 -2709159.50287921 -75007.55663308 -206017.79481189 64.73369852 187235.47815379 -396711.48327442 -2709159.50287921
2.4599999999999986 93341.51757123 -202794.66287448 66.25381958 421375.15862787 -151106.50020038 -2765634.97160142 -77395.06126613 -209399.90134784 66.25381958 191108.80111627 -404805.66306237 -2765634.97160142
2.4899999999999984 93802.63041558 -209343.47601842 66.60449836 434937.02858865 -155719.93738392 -2856400.79803907 -81699.71542980 -214356.66754978 66.60449836 197436.29861405 -417657.54599428 -2856400.79803907
2.5199999999999982 94022.50363206 -217595.08281636 65.89297020 452013.07102295 -161441.27892324 -2970857.05780653 -87379.00870994 -220346.90851466 65.89297020 205465.28461524 -433777.73079534 -2970857.05780653
2.549999999999998 93998.34835605 -226654.39162425 64.34166229 470752.18394186 -167664.49966110 -3096630.10594573 -93801.98776031 -226735.72684612 64.34166229 214315.35684905 -451428.76619828 -3096630.10594573
2.579999999999998 93730.91143825 -235591.93423568 62.25356656 489232.92995835 -173763.04302102 -3220873.45224663 -100310.89120612 -232866.41737569 62.25356656 223070.89631354 -468808.94839308 -3220873.45224663
2.6099999999999977 93234.39586840 -243537.09694986 59.97771661 505656.36652377 -179153.60439808 -3331549.47267379 -106280.05916535 -238133.40628211 59.97771661 230872.31717522 -484233.77426300 -3331549.47267379
2.6399999999999975 92545.71431289 -249761.06446234 57.86863645 518517.40777534 -183352.64851248 -3418568.12305487 -111168.04019729 -242047.44451809 57.86863645 236997.27408953 -496297.07631290 -3418568.12305487
2.6699999999999973 91729.97111590 -253741.76027541 56.24900069 526738.83976349 -186020.18995352 -3474678.65262496 -114559.63474686 -244285.40397505 56.24900069 240924.46775736 -503996.74326484 -3474678.65262496
2.699999999999997 90880.11213399 -255205.18488248 55.37958685 529756.47953098 -186986.95580217 -3496039.04928100 -116195.37325943 -244719.26038931 55.37958685 242374.65461272 -506814.14349501 -3496039.04928100
2.729999999999997 90110.00497536 -254140.11039277 55.43498399 527549.26403606 -186262.89014692 -3482422.46371161 -115986.79985939 -243421.59100105 55.43498399 241325.90930358 -504741.41471617 -3482422.46371161
2.7599999999999967 89541.48217397 -250786.06244524 56.48939596 520613.92983990 -184026.98904089 -3437057.52424454 -114017.13613940 -240647.91462481 56.48939596 238002.90829782 -498256.37204213 -3437057.52424454
2.7899999999999965 89287.82933078 -245596.78769622 58.51380668 509889.42320481 -180600.50450589 -3366135.47334989 -110527.12442041 -236799.18361485 58.51380668 232842.42738159 -488250.11022524 -3366135.47334989
2.8199999999999963 89436.67568867 -239184.26432060 61.38411564 496641.05194181 -176407.10022200 -3278048.60063955 -105887.53538797 -232370.09512045 61.38411564 226439.59882725 -475916.91246011 -3278048.60063955
