# Level force for level 46
# start: 0.0, 0.0, 210.64797962962962
# center: 0.0, 0.0, 212.9627925925926
# end: 0.0, 0.0, 215.27760555555557
# as part of FluidModelPart.Drag_structure
# Time Fx Fy Fz Mx My Mz Fx' Fy' Fz' Mx' My' Mz'
0.03 2611.96955024 7080.57828414 -0.84160321 -49643.54677591 -44562.60369702 26474.95408651 6853.66630067 3159.78353821 -0.84160321 -66613.80782889 3592.76930591 26474.95408651
0.06 7413.06965323 20246.30397158 -2.40072594 -141972.84963389 -127503.17542206 75764.76319011 19558.13065348 9074.46701106 -2.40072594 -190548.32468426 10231.60475675 75764.76319011
0.09 13935.49631113 38022.04948402 -4.64159296 -266666.98729996 -239535.77325119 142382.17466007 36739.53296556 17031.76508396 -4.64159296 -357939.40464107 19184.66543571 142382.17466007
0.12 21642.04571774 58588.61185139 -7.48003858 -411005.09805771 -369213.20153338 219579.52362934 56731.64202619 26125.16745466 -7.48003858 -551697.65044670 29551.33343100 219579.52362934
0.15 29903.78631052 79956.48639718 -10.81532088 -561060.25720748 -504008.39822592 299954.41802474 77682.94381462 35392.60364797 -10.81532088 -753117.26868620 40341.75636516 299954.41802474
0.18 37979.06333940 100150.73080035 -14.55970726 -702969.61418096 -631464.52281146 376095.48183040 97672.51412012 43962.00765931 -14.55970726 -943587.42731415 50561.73499674 376095.48183040
0.21 45031.95992510 117387.57122492 -18.65584849 -824159.17494842 -740299.83349221 441220.14469291 114847.95187332 51163.14340701 -18.65584849 -1106239.57375675 59297.50900952 441220.14469291
0.24 50213.13764868 130226.75375314 -23.07301863 -914420.53504613 -821372.28235640 489759.46556932 127590.27080679 56578.17053472 -23.07301863 -1227390.87192023 65795.05045447 489759.46556932
0.27 52798.09181435 137687.05796104 -27.79778718 -966751.74751328 -868424.62681273 517843.14893999 134693.34112151 60025.56361025 -27.79778718 -1297665.65895927 69527.77382191 517843.14893999
0.30000000000000004 52348.14821895 139316.23936241 -32.78161721 -977891.74855038 -878550.35301746 523631.85861624 135527.18817075 61495.72699439 -32.78161721 -1312702.79889883 70244.97443386 523631.85861624
0.33000000000000007 48846.29335658 135211.00135009 -37.90251165 -948501.81770166 -852342.85913739 507458.12895904 130148.16121394 61069.07067741 -37.90251165 -1273389.48285659 67994.65167263 507458.12895904
0.3600000000000001 42758.78671972 125986.83777098 -42.93739696 -882977.60512875 -793719.12210934 471748.18963430 119321.17537293 58851.11928328 -42.93739696 -1185603.62582334 63115.27862145 471748.18963430
0.3900000000000001 34992.42982981 112702.24487375 -47.50677374 -788910.97628978 -709440.14342173 420725.78378528 104435.90602803 54949.13718232 -47.50677374 -1059494.23734646 56194.36482754 420725.78378528
0.42000000000000015 26754.58083079 96745.25969070 -51.17450698 -676259.46354895 -608376.29432218 359933.46144170 87327.57470820 49490.88364169 -51.17450698 -908374.65574539 48000.64928869 359933.46144170
0.4500000000000002 19340.58346191 79693.55886705 -53.48769908 -556311.57408775 -500598.22541428 295624.70624512 70027.71360981 42675.99817376 -53.48769908 -747348.08633040 39395.28664962 295624.70624512
0.4800000000000002 13905.22222930 63161.73471655 -54.09530272 -440560.15309172 -396383.92976555 234107.16262970 54494.56786182 34829.61399734 -54.09530272 -591808.83646233 31237.30708115 234107.16262970
0.5100000000000002 11268.83636062 48650.37515751 -52.85069152 -339601.90565469 -305243.77847717 181112.84779656 42369.28078782 26432.73957447 -52.85069152 -455974.75606852 24294.86471609 181112.84779656
0.5400000000000003 11796.69740259 37411.30576314 -49.87470661 -262173.46176541 -235059.01353913 141263.92611551 34795.31272714 18112.26326919 -49.87470661 -351596.45511402 19172.81020893 141263.92611551
0.5700000000000003 15366.77867065 30341.39777429 -45.56692338 -214413.23953719 -191413.66759070 117683.66706829 32320.56151989 10588.65471387 -45.56692338 -286962.95801809 16263.15328775 117683.66706829
0.6000000000000003 21418.28230882 27914.23943573 -40.55227650 -199408.49611985 -177175.60682546 111780.22368906 34883.36065861 4593.33533473 -40.55227650 -266285.17287968 15721.02678543 111780.22368906
0.6300000000000003 29058.63563022 30154.38069669 -35.59633073 -217053.70932857 -192353.84497400 123209.23465142 41869.92537927 774.80876695 -35.59633073 -289494.85791635 17465.44157951 123209.23465142
0.6600000000000004 37203.40743678 36654.76418692 -31.49997690 -264213.92203703 -234229.30610503 150004.14049415 52225.61400116 -387.94936243 -31.49997690 -352452.58665577 21202.32525679 150004.14049415
0.6900000000000004 44725.43256828 46632.96316119 -29.00754108 -335159.27696553 -297731.31632770 188849.41017992 64600.14113864 1348.82781757 -29.00754108 -447521.23026682 26465.56477300 188849.41017992
0.7200000000000004 50598.37305192 59019.23049142 -28.71763980 -422215.16274202 -376010.35427422 235464.76906707 77511.35080292 5954.44539888 -28.71763980 -564430.67599832 32671.73339101 235464.76906707
0.7500000000000004 54024.89241533 72566.40247908 -31.02035896 -516558.15499023 -461145.33989199 285058.35138882 89513.56305902 13110.82749951 -31.02035896 -691340.77122101 39182.77732060 285058.35138882
0.7800000000000005 54540.21952230 85970.92592018 -36.04506847 -609080.24278817 -544916.32164603 332804.87996940 99356.38377467 22224.86563142 -36.04506847 -815998.79617741 45370.74374713 332804.87996940
0.8100000000000005 52079.82693801 97994.05306485 -43.62420367 -691241.94562755 -619572.45741753 374304.72857630 106118.25822900 32466.26064722 -43.62420367 -926885.75327017 50677.98111747 374304.72857630
0.8400000000000005 46997.91270140 107572.86817576 -53.27954570 -755838.99996398 -678528.76401609 405979.83390299 109298.04733154 42832.96178600 -53.27954570 -1014251.17262569 54666.59209389 405979.83390299
0.8700000000000006 40026.29090512 113912.04438759 -64.23741187 -797616.76874435 -716932.66063300 425369.80185765 108850.84077005 52245.11732053 -64.23741187 -1070948.17195494 57052.27997953 425369.80185765
0.9000000000000006 32172.25300251 116548.60016096 -75.49975176 -813681.25849924 -732053.01641006 431303.91875326 105161.52377573 59663.08724749 -75.49975176 -1092999.18770083 57719.88351760 431303.91875326
0.9300000000000006 24568.20522170 115384.44717761 -85.96165995 -803674.68844444 -723459.39350592 423939.97402241 98961.46955660 64216.78052890 -85.96165995 -1079846.86512819 56720.77900591 423939.97402241
0.9600000000000006 18297.22099065 110683.71330329 -94.56156161 -769706.20698095 -692979.23782922 404674.39776121 91203.29328302 65327.11520431 -94.56156161 -1034274.79676813 54254.16018707 404674.39776121
0.9900000000000007 14228.49001668 103035.70702798 -100.45664048 -716051.26553009 -644439.62941667 375941.55969467 82918.30892067 62796.18536700 -100.45664048 -962012.33755941 50637.07350766 375941.55969467
1.0200000000000007 12892.33203092 93287.23866151 -103.15866751 -648656.39731587 -583225.10899477 340928.22982842 75080.29446010 56847.78365135 -103.15866751 -871071.76673055 46266.90767363 340928.22982842
1.0500000000000007 14416.38532641 82451.72502025 -102.62100990 -574503.58383924 -515698.81138783 303235.49006336 68496.09770685 48108.25005784 -102.62100990 -770889.50653088 41581.25336652 303235.49006336
1.0800000000000007 18529.64594690 71604.85666905 -99.24531110 -500901.51682303 -448549.71284723 266522.35784731 63734.71801862 37529.84141454 -99.24531110 -671363.40290574 37018.31559864 266522.35784731
1.1100000000000008 24627.24470129 61777.94696628 -93.81455000 -434775.95416857 -388134.38390121 234164.63985212 61097.69695786 26269.51349742 -93.81455000 -581885.48035765 32980.57062124 234164.63985212
1.1400000000000008 31878.48368446 53859.98885601 -87.36924671 -382028.56433423 -339879.80690606 208959.09776200 60626.25534194 15543.27136749 -87.36924671 -510466.30469934 29803.67219605 208959.09776200
1.1700000000000008 39355.72010690 48517.96339200 -81.05911582 -347023.58995275 -307804.30855661 192896.58014010 62136.07748992 6478.68435778 -81.05911582 -463033.24754610 27732.21982847 192896.58014010
1.2000000000000008 46162.92905633 46142.65306230 -75.98834706 -332245.15581971 -294197.97056447 187021.44172573 65269.90305745 -14.33729287 -75.98834706 -442962.18269395 26903.42269904 187021.44172573
1.2300000000000009 51545.60830241 46823.82700253 -73.06434788 -338149.59206396 -299485.46967372 191382.67321821 69557.69476561 -3338.80357642 -73.06434788 -450876.07607702 27339.66313077 191382.67321821
1.260000000000001 54971.81300632 50355.66764468 -72.89176540 -363217.57704155 -322273.96786089 205075.12105931 74477.77581362 -3264.10768816 -72.89176540 -484715.71984656 28951.50369790 205075.12105931
1.290000000000001 56176.35098992 56270.29974222 -75.74031080 -404189.80656049 -359572.39865791 226369.36660807 79511.78925441 66.43179983 -75.74031080 -540061.43452392 31549.27168688 226369.36660807
1.320000000000001 55169.27711951 63894.55553689 -81.55326597 -456453.70846751 -407150.74982745 252908.84602552 84190.84346540 6169.70353667 -81.55326597 -610660.56872330 34862.45638694 252908.84602552
1.350000000000001 52211.39239082 72423.48814825 -89.96663205 -514539.17643488 -459999.04391331 281954.34682952 88130.16920155 14292.10997207 -89.96663205 -689102.58413368 38565.69755282 281954.34682952
1.380000000000001 47763.79077062 81002.88054356 -100.39871750 -572671.41885851 -512838.47524547 310654.12174009 91051.78647708 23503.58577892 -100.39871750 -767571.40716601 42308.28016713 310654.12174009
1.410000000000001 42420.01745669 88812.64021157 -112.10549399 -625329.81500179 -560634.33288615 336313.68386040 92795.50215036 32804.53814701 -112.10549399 -838603.29121569 45746.61411610 336313.68386040
1.440000000000001 36830.39375035 95143.22182982 -124.26986214 -667759.01980816 -599063.48108437 356642.25645118 93319.43851445 41233.39616516 -124.26986214 -895778.78094081 48575.08126885 356642.25645118
1.470000000000001 31627.86381943 99458.30172978 -136.08654339 -696387.63843697 -624894.35542834 369953.45076874 92691.91657959 47963.36261726 -136.08654339 -934287.45772184 50553.38522470 369953.45076874
1.500000000000001 27362.54540925 101438.21750052 -146.83802273 -709118.70490293 -636247.25513919 375302.17273615 91075.89287550 52379.41005669 -146.83802273 -951317.39352333 51527.89628283 375302.17273615
1.5300000000000011 24451.44058763 101001.05032748 -155.95178035 -705468.45347913 -632714.48865291 372546.43195147 88708.30704282 54128.74814423 -155.95178035 -946238.23284973 51444.82188683 372546.43195147
1.5600000000000012 23145.38338541 98300.02588364 -163.04143398 -686544.87826815 -615334.46568077 362329.09631679 85874.87243812 53142.35734815 -163.04143398 -920567.71239297 50353.36563163 362329.09631679
1.5900000000000012 23515.71680390 93698.36942630 -167.93211662 -654873.69512561 -586427.12491797 345983.35661691 82882.87522396 49626.62959095 -167.93211662 -877732.22734524 48399.03394278 345983.35661691
1.6200000000000012 25458.90158799 87725.20272901 -170.65506089 -614093.04606386 -549312.47301138 325373.57923610 80033.24768508 44028.92377622 -170.65506089 -822651.93180796 45806.78249456 325373.57923610
1.6500000000000012 28717.43702237 81017.15818644 -171.44349745 -568552.20401818 -507944.35580810 302689.34166335 77594.07640291 36981.48748928 -171.44349745 -761198.01737715 42856.22046248 302689.34166335
1.6800000000000013 32913.73360460 74252.18766860 -170.72109537 -522858.21034611 -466498.88746502 280214.61069460 75777.74964438 29230.70119242 -170.72109537 -699581.11287730 39852.05939230 280214.61069460
1.7100000000000013 37593.24822079 68082.31553847 -169.05904029 -481416.68815969 -428960.22891375 260101.14786854 74723.90773988 21559.02625239 -169.05904029 -643733.69149834 37092.31804984 260101.14786854
1.7400000000000013 42272.72173611 63071.93820799 -167.12593046 -448013.54136089 -398744.57055424 244164.91416113 74489.92340827 14707.26701063 -167.12593046 -598748.40295990 34838.42335947 244164.91416113
1.7700000000000014 46489.09119647 59647.38516594 -165.62913434 -425477.36472514 -378397.48741136 233725.93880802 75049.82216711 9304.31889465 -165.62913434 -568425.35917105 33290.50050600 233725.93880802
1.8000000000000014 49845.41192838 58062.26129453 -165.24116110 -415451.29020128 -369390.39992581 229505.72990709 76302.24747799 5810.18990679 -165.24116110 -554966.88124677 32569.96786127 229505.72990709
1.8300000000000014 52049.18706364 58380.95519719 -166.53878138 -418291.43535337 -372031.04132390 231588.81359785 78085.90244003 4477.23618413 -166.53878138 -558842.38258265 32711.03831860 231588.81359785
1.8600000000000014 52940.58687904 60481.22287251 -169.93876287 -433095.10797969 -385490.43657067 239449.17289243 80201.33080978 5332.03484545 -169.93876287 -578827.38953284 33661.58596947 239449.17289243
1.8900000000000015 52506.19661869 64074.54070410 -175.64997220 -457849.44225537 -407938.00471003 252033.99918872 82435.02991667 8180.05454990 -175.64997220 -612204.17481543 35292.71594708 252033.99918872
1.9200000000000015 50877.27702048 68741.48578408 -183.66194709 -489679.65188794 -436766.17644453 267893.27437948 84583.23833625 12631.90315727 -183.66194709 -655096.12761587 37415.47730218 267893.27437948
1.9500000000000015 48311.50203058 73978.21810821 -193.74867911 -525167.81965815 -468878.60976025 285339.60323903 86471.89037954 18149.10898929 -193.74867911 -702896.97105603 39802.48202644 285339.60323903
1.9800000000000015 45159.70567027 79249.06345793 -205.49931270 -560708.33044723 -501011.64622208 302621.11474033 87970.28428962 24104.81605795 -205.49931270 -750749.39522409 42211.93022996 302621.11474033
2.0100000000000016 41821.35455523 84039.93366172 -218.36971519 -592864.29816024 -530056.82451656 318090.37056779 88997.37038708 29853.04357826 -218.36971519 -794025.14058237 44411.59052264 318090.37056779
2.0400000000000014 38694.52922846 87907.39784958 -231.74581967 -618691.04241438 -553353.66202781 330354.02924316 89521.08114817 34798.75312364 -231.74581967 -828760.75836485 46200.50473631 330354.02924316
2.070000000000001 36127.65256356 90518.83942668 -245.00813119 -635997.28996578 -568925.93434941 338390.98078934 89552.59329979 38460.37706770 -245.00813119 -852009.38272242 47426.61037971 338390.98078934
2.100000000000001 34379.70578949 91679.98178634 -257.59489830 -643521.87538138 -575641.21481700 341629.99923291 89137.65991913 40517.41372123 -257.59489830 -862078.48845162 47998.87539649 341629.99923291
2.130000000000001 33595.21069788 91347.70395360 -269.04990932 -641012.59309790 -573281.30493925 339982.38632086 88347.98221127 40837.17961155 -269.04990932 -858635.44965552 47893.25315548 339982.38632086
2.1600000000000006 33796.26871715 89627.19406466 -279.06035347 -629203.68765721 -562520.58828897 333828.53155375 87273.56749054 39478.42591314 -279.06035347 -842676.31682617 47152.07175382 333828.53155375
2.1900000000000004 34892.53228192 86754.57299232 -287.47893619 -609698.43151810 -544818.18302090 323961.76182029 86017.49305113 36672.00067249 -287.47893619 -816366.52713306 45877.26367744 323961.76182029
2.22 36705.27427755 83067.30638695 -294.32799935 -584772.17115622 -522238.14282723 311495.83423880 84692.00398808 32782.90729414 -294.32799935 -782774.49986115 44218.23548634 311495.83423880
2.25 39000.21097317 78965.85447357 -299.79456077 -557118.61428494 -497218.83992762 297745.60670225 83414.60482729 28259.97753361 -299.79456077 -745529.16353267 42355.53663960 297745.60670225
2.28 41522.90700295 74870.98327043 -304.21057936 -529566.67871109 -472316.38255868 284092.79833002 82302.90910099 23580.65086826 -304.21057936 -708438.30657979 40482.07263431 284092.79833002
2.3099999999999996 44030.67752839 71181.20648536 -308.02412618 -504797.18905652 -449948.81585166 271849.75782530 81467.10445940 19198.32313827 -308.02412618 -675107.37438134 38783.65663021 271849.75782530
2.3399999999999994 46316.85644210 68234.68906449 -311.75806170 -485087.40163316 -432166.30194544 262134.49278333 81000.17462311 15498.24807621 -311.75806170 -648596.31386890 37420.86845704 262134.49278333
2.369999999999999 48225.25840559 66279.12918435 -315.96193979 -472107.31898591 -420468.74315616 255768.79980351 80966.82894046 12766.01445432 -315.96193979 -631146.58626544 36513.98714003 255768.79980351
2.399999999999999 49655.35713787 65452.26287610 -321.15571078 -466785.47233002 -415686.35611115 253209.16510990 81393.37867813 11170.09916927 -321.15571078 -624001.81409684 36132.53159100 253209.16510990
2.429999999999999 50559.68727640 65774.15775301 -327.77646578 -469254.07622920 -417931.83240348 254516.28607892 82260.45070180 10758.25524617 -327.77646578 -627335.17216731 36290.30663488 254516.28607892
2.4599999999999986 50936.92174324 67151.55233267 -336.12901607 -478875.12390266 -426625.02971147 259365.39708845 83501.16079904 11465.47524422 -336.12901607 -640285.29898601 36946.39592022 259365.39708845
2.4899999999999984 50822.70851571 69392.94826039 -346.34804153 -494340.91894561 -440584.15513992 267094.82979806 85005.30611117 13131.14245172 -346.34804153 -661091.85978722 38011.77222165 267094.82979806
2.5199999999999982 50280.95389352 72232.42937639 -358.38065412 -513835.56164101 -458171.33187124 276786.69397488 86630.04409626 15522.03717099 -358.38065412 -687312.66576258 39360.55433973 276786.69397488
2.549999999999998 49396.68832610 75359.49999725 -371.98896091 -535238.50795884 -477475.46871344 287370.29710520 88215.94675843 18358.48019134 -371.98896091 -716096.92030737 40844.63675237 287370.29710520
2.579999999999998 48270.49993353 78451.65349075 -386.77581130 -556348.29387993 -496513.06504627 297736.65229559 89606.09401287 21341.29834434 -386.77581130 -744485.40654600 42309.89606213 297736.65229559
2.6099999999999977 47014.06543302 81206.44399788 -402.22953127 -575103.40407713 -513426.39867872 306851.96894025 90665.59170578 24177.66274811 -402.22953127 -769706.80505232 43612.22876049 306851.96894025
2.6399999999999975 45745.68996007 83369.97455412 -417.78453585 -589778.68657625 -526659.92134154 313858.39414700 91298.56193540 26604.38677375 -417.78453585 -789441.31043714 44631.70691759 313858.39414700
2.6699999999999973 44584.88466815 84759.23555248 -432.88863503 -599139.04907412 -535098.55618278 318152.19554950 91460.10451462 28407.55594007 -432.88863503 -802027.10215394 45283.46679400 318152.19554950
2.699999999999997 43645.49272199 85276.45018742 -447.06696883 -602537.20441840 -538156.00660510 319432.37859821 91161.58007499 29437.53233110 -447.06696883 -806591.90476818 45524.38155469 319432.37859821
2.729999999999997 43027.34035054 84914.38489798 -459.97737889 -599948.35638302 -535806.61087973 317716.05269811 90468.46151994 29618.61324335 -459.97737889 -803100.03911779 45355.06320252 317716.05269811
2.7599999999999967 42806.96697612 83752.47490002 -471.44561959 -591941.30826776 -528560.14277860 313320.61112391 89491.03957380 28952.84631212 -471.44561959 -792314.17436425 44817.25191689 313320.61112391
2.7899999999999965 43029.17822051 81944.66957681 -481.48066352 -579591.93878077 -517384.65268642 306816.31685797 88369.85524847 27517.40783125 -481.48066352 -775679.58662936 43987.19383653 306816.31685797
2.8199999999999963 43700.53586497 79700.55017945 -490.26485089 -564350.43546925 -503587.35969587 298955.64190213 87257.74474780 25455.85424458 -490.26485089 -755146.05684666 42965.98292511 298955.64190213
2.849999999999996 44786.22213475 77261.82187365 -498.12415790 -547877.94666854 -488667.71385769 290587.79710591 86300.99954890 22963.71679848 -498.12415790 -732948.46556758 41867.95713619 290587.79710591
2.879999999999996 46211.41398021 74876.81434500 -505.48309219 -531870.50279706 -474158.50062239 282568.13616547 85622.30737062 20269.49898337 -505.48309219 -711369.93038824 40808.54809357 282568.13616547
2.9099999999999957 47867.33878924 72775.58842699 -512.81098096 -517888.58319034 -461471.65720078 275671.81092471 85307.43193679 17612.79222634 -512.81098096 -692512.26720504 39892.79094092 275671.81092471
