# Level force for level 8
# start: 0.0, 0.0, 34.72219444444445
# center: 0.0, 0.0, 37.03700740740741
# end: 0.0, 0.0, 39.35182037037037
# as part of FluidModelPart.Drag_structure
# Time Fx Fy Fz Mx My Mz Fx' Fy' Fz' Mx' My' Mz'
0.03 -2730.45180580 8571.31342731 -0.07525577 98129.43808212 -20033.15464426 -151602.37334588 4130.11286054 7991.55483571 -0.07525577 55222.41160438 -83553.57059941 -151602.37334588
0.06 -7875.79180044 24511.70535845 -0.33255473 280626.97751478 -57304.93793968 -433559.61101415 11763.36728810 22901.41886671 -0.33255473 157912.52857196 -238953.94899721 -433559.61101415
0.09 -14773.44356241 46041.16306943 -0.81450603 527088.49471128 -107639.93057094 -814328.79358213 22109.61649565 43002.42074456 -0.81450603 296594.92406259 -448820.77372892 -814328.79358213
0.12 -22561.24467504 70966.56016842 -1.51995372 812361.68767035 -165882.63349538 -1255005.20838651 34227.72683084 66134.14503430 -1.51995372 457129.72310218 -691723.19315352 -1255005.20838651
0.15 -30359.69605160 96884.79623363 -2.40715681 1108907.45368245 -226395.55041869 -1713008.24851496 47040.34945782 89975.44336353 -2.40715681 624030.15127565 -944201.80913868 -1713008.24851496
0.18 -37461.65764197 121399.10046618 -3.39498526 1389313.11265133 -283588.57551258 -2146003.22625954 59352.73501645 112331.51932271 -3.39498526 781865.31833516 -1182920.12795912 -2146003.22625954
0.21 -43458.01223115 142329.27668061 -4.37640085 1628716.83585511 -332421.60788417 -2515668.74424522 69912.54155671 131371.45184777 -4.37640085 916619.14611801 -1386734.29241368 -2515668.74424522
0.24 -48252.57787023 157899.23827314 -5.24529440 1806939.56112447 -368833.44566159 -2790980.41625098 77531.89710536 145771.34714890 -5.24529440 1016894.58630965 -1538503.84742106 -2790980.41625098
0.27 -51962.96703400 166886.57841588 -5.91881745 1910149.27988647 -390062.04921976 -2950737.72311284 81263.26492657 154749.99764721 -5.91881745 1074863.98879951 -1626495.02897314 -2950737.72311284
0.30000000000000004 -54750.78993813 168720.40217245 -6.35008961 1931917.93713914 -394833.84202058 -2985130.63178476 80588.68566009 158017.99534123 -6.35008961 1086882.58691232 -1645261.96118171 -2985130.63178476
0.33000000000000007 -56648.91602613 163517.60865442 -6.50600198 1873577.37618453 -383413.04389179 -2896224.96345577 75567.57725400 155681.24259189 -6.50600198 1053705.30444652 -1595933.23110904 -2896224.96345577
0.3600000000000001 -57457.49466280 152052.59556210 -6.32927684 1743842.86037918 -357513.77825149 -2697344.27432396 66888.83731292 148146.00552503 -6.32927684 980282.69492861 -1485883.52886711 -2697344.27432396
0.3900000000000001 -56754.93248409 135662.54473579 -5.75296325 1557745.02923715 -320088.45293734 -2411431.86999477 55796.10771042 136059.70296099 -5.75296325 875155.35788172 -1327828.78918473 -2411431.86999477
0.42000000000000015 -54017.40793337 116098.96479633 -4.67361127 1334982.76965371 -275015.67734984 -2068555.69224440 43898.28984442 120290.44074803 -4.67361127 749509.91880265 -1138440.81957603 -2068555.69224440
0.4500000000000002 -48812.51616910 95341.71633304 -3.02791233 1097876.59074479 -226715.88844792 -1702834.29644641 32901.11295911 101932.43533901 -3.02791233 616003.64009735 -936628.32434587 -1702834.29644641
0.4800000000000002 -40994.30195964 75397.22533284 -0.82905558 869141.31399686 -179730.84611932 -1349083.17499819 24326.54040983 82301.23822117 -0.82905558 487486.81685720 -741664.61701593 -1349083.17499819
0.5100000000000002 -30837.40405951 58103.11942513 1.81315808 669712.09692462 -138304.73969663 -1039524.34062552 19279.77222893 62890.44727827 1.81315808 375761.74586834 -571354.18448779 -1039524.34062552
0.5400000000000003 -19070.65705807 44959.53789056 4.70182717 516841.13754610 -106005.57408458 -800878.67217547 18306.20319398 45276.18504887 4.70182717 290504.61287624 -440419.13343380 -800878.67217547
0.5700000000000003 -6805.28379922 37002.84738397 7.58563073 422640.69445218 -85421.77951412 -652108.59913660 21352.90198609 30977.02663074 7.58563073 238449.78149707 -359254.42060798 -652108.59913660
0.6000000000000003 4616.22475959 34731.09398793 10.19950179 393189.99859756 -77961.42829313 -602999.17914059 27822.75590788 21294.42824591 10.19950179 222900.25968600 -333154.36892012 -602999.17914059
0.6300000000000003 13810.80137136 38084.78879090 12.30504033 428256.89484891 -83769.72839202 -653668.57731366 36695.72371741 17164.30111079 12.30504033 243589.21143340 -362057.49744171 -653668.57731366
0.6600000000000004 19546.65410884 46480.94007296 13.71706794 521622.45623671 -101767.78294027 -795001.96187370 46688.55959139 19045.41625165 13.71706794 296882.08660078 -440803.46544755 -795001.96187370
0.6900000000000004 20908.61759847 58893.45432700 14.32528861 661940.92829633 -129802.33371576 -1009914.25339063 56428.58621124 26859.33563301 14.32528861 376278.80875900 -559847.02952751 -1009914.25339063
0.7200000000000004 17424.86612869 73970.07461232 14.10068229 834026.60958347 -164886.55622717 -1275278.91795200 64625.98236411 39983.50036238 14.10068229 473153.46929177 -706338.27336123 -1275278.91795200
0.7500000000000004 9150.97454282 90173.64111155 13.09895568 1020429.44011321 -203504.63260909 -1564312.66798695 70233.10926796 57291.67696056 13.09895568 577653.07110568 -865452.08254720 -1564312.66798695
0.7800000000000005 -3293.24263562 105933.98332372 11.46022893 1203145.76993481 -241950.21982508 -1849182.76853547 72577.96376657 77235.31216605 11.46022893 679667.89152892 -1021837.17382470 -1849182.76853547
0.8100000000000005 -18743.56945983 119796.29460272 9.40461615 1365306.66741587 -276668.79403759 -2103599.76230758 71455.06720592 97962.47734330 9.40461615 769783.22252228 -1161051.98333565 -2103599.76230758
0.8400000000000005 -35580.32502678 130552.41115081 7.21923241 1492693.76038191 -304575.63686757 -2305171.49233332 67155.40612173 117473.58432825 7.21923241 840126.38198763 -1270861.37841416 -2305171.49233332
0.8700000000000006 -51893.40138355 137343.13591675 5.23051846 1574951.87419188 -323324.00463986 -2437321.46389003 60422.08673902 133810.43877330 5.23051846 885034.55408230 -1342283.74648478 -2437321.46389003
0.9000000000000006 -65714.09326760 139723.04893148 3.76479306 1606396.96001941 -331501.22386139 -2490613.02205360 52332.23441846 145265.99635656 3.76479306 901487.42034316 -1370300.94707121 -2490613.02205360
0.9300000000000006 -75284.45505046 137683.04916980 3.09872582 1586357.51497185 -328735.58706359 -2463373.11934051 44122.46903829 150590.76640652 3.09872582 889272.99339283 -1354175.31905283 -2463373.11934051
0.9600000000000006 -79319.02992219 131630.03479258 3.42072921 1519031.37528818 -315703.33157104 -2361570.70406845 36989.46627453 149163.51414478 3.42072921 850881.41970433 -1297353.35289847 -2361570.70406845
0.9900000000000007 -77206.29105957 122328.45677947 4.79619170 1412887.36693930 -294034.78090696 -2197975.03430391 31906.18936236 141092.37327933 4.79619170 791148.25073157 -1206976.22569960 -2197975.03430391
1.0200000000000007 -69110.32616934 110810.69340468 7.16320378 1279683.48834510 -266128.54479576 -1990688.56035452 29486.61245008 127223.37301879 7.16320378 716691.57368889 -1093054.17107367 -1990688.56035452
1.0500000000000007 -55952.37776769 98266.75264198 10.34265512 1133210.28286263 -234893.76936489 -1761213.12081606 29920.78141528 109049.39290137 10.34265512 635205.69834610 -967395.65269887 -1761213.12081606
1.0800000000000007 -39278.41341711 85924.70596928 14.06776670 987891.83728088 -203448.48286633 -1532254.44605273 32983.90978085 88531.97474383 14.06776670 554685.21536325 -842404.81907704 -1532254.44605273
1.1100000000000008 -21040.00606431 74933.58613690 18.02160215 857386.48031209 -174806.87951688 -1325492.96100159 38108.51593175 67863.57786031 18.02160215 482656.66442190 -729870.92423080 -1325492.96100159
1.1400000000000008 -3328.78370226 66259.65841438 21.86997869 753324.26988950 -151588.70043848 -1159546.13543102 44498.84825494 49206.45931288 21.86997869 425491.30163997 -639870.09770258 -1159546.13543102
1.1700000000000008 11892.38515537 60605.01161972 25.30562656 684296.33220364 -135779.80970926 -1048316.65968218 51263.40087804 34445.02850234 25.30562656 387859.75264864 -579881.40103591 -1048316.65968218
1.2000000000000008 23023.82654422 58355.02116695 28.06777664 655182.23185862 -128566.17306554 -999871.87528583 57543.53506171 24982.92730516 28.06777664 372373.78625431 -554193.81186601 -999871.87528583
1.2300000000000009 29001.56644269 59557.96622906 29.98703432 666866.03653988 -130254.17544115 -1015938.53819010 62621.04609091 21606.63749759 29.98703432 379441.88584805 -563649.10731265 -1015938.53819010
1.260000000000001 29393.29947927 63936.96086323 30.99804516 716338.06545777 -140280.83752621 -1092031.18359007 65994.45997809 24426.05721161 30.99804516 407333.97222194 -605721.03519255 -1092031.18359007
1.290000000000001 24411.84666861 70931.02494017 31.13273708 797160.15669487 -157307.75242527 -1218164.21483125 67417.59105237 32894.02641105 31.13273708 452443.97401755 -674910.73096380 -1218164.21483125
1.320000000000001 14853.49187994 79760.56854455 30.50824546 900231.28482341 -179385.30526266 -1380050.14276516 66902.24372175 45896.23405654 30.50824546 509715.08033847 -763404.21193136 -1380050.14276516
1.350000000000001 1973.88658327 89509.73098328 29.29011863 1014764.52656886 -204167.83731356 -1560648.72847780 64688.68634879 61897.18917214 29.29011863 573178.41577979 -861915.34030901 -1560648.72847780
1.380000000000001 -12678.88109692 99217.60823631 27.69196905 1129376.35733949 -229156.79569344 -1741908.81748220 61192.12079552 79122.76639850 27.69196905 636551.35659670 -960628.00497633 -1741908.81748220
1.410000000000001 -27451.69546601 107969.81506414 25.94083023 1233185.60992015 -251947.42953008 -1906528.48784625 56934.90837623 95757.46841440 25.94083023 693840.17131297 -1050147.64315945 -1906528.48784625
1.440000000000001 -40771.42437860 114982.17515858 24.24848357 1316819.43471091 -270455.43488744 -2039568.99069016 52474.92511347 110134.42642695 24.24848357 739891.07986465 -1122372.82389998 -2039568.99069016
1.470000000000001 -51307.15053693 119669.21587413 22.78126363 1373237.68833241 -283102.93534239 -2129777.87584898 48339.27997585 120898.54811189 22.78126363 770841.67624637 -1171209.68695521 -2129777.87584898
1.500000000000001 -58094.11505281 121691.59087504 21.63823944 1398304.99590225 -288947.59983408 -2170507.08552276 44970.20642025 127127.69182199 21.63823944 784434.13751925 -1193067.75201977 -2170507.08552276
1.5300000000000011 -60609.62001283 120978.65403935 20.84678866 1391064.53376228 -287745.00027225 -2160152.89064901 42687.35333384 128402.29996626 20.84678866 780164.72394638 -1187097.60583645 -2160152.89064901
1.5600000000000012 -58798.10980129 117724.28962994 20.37426921 1353696.46162230 -279940.79322210 -2102090.82155473 41667.10134625 124820.18566914 20.37426921 759259.91446327 -1155155.98089945 -2102090.82155473
1.5900000000000012 -53047.12857660 112357.78061743 20.15333821 1291174.91919344 -266596.42325750 -2004132.23408514 41938.96425466 116958.93293264 20.15333821 724486.40233422 -1101510.67978513 -2004132.23408514
1.6200000000000012 -44120.70335989 105492.49895166 20.07414332 1210668.36491166 -249258.25247461 -1877572.83233016 43396.41283654 105792.50990953 20.07414332 679819.61000556 -1032324.01118857 -1877572.83233016
1.6500000000000012 -33060.33305286 97858.68957662 20.00546333 1120750.75789561 -229785.28490882 -1735942.67996366 45819.35730769 92573.72868762 20.00546333 630007.72775204 -954973.19410386 -1735942.67996366
1.6800000000000013 -21065.28724244 90227.46539452 19.82289303 1030507.61142876 -210154.41211440 -1593592.12934655 48905.04517297 78695.86008652 19.82289303 580077.31020327 -877280.53000799 -1593592.12934655
1.7100000000000013 -9365.28442708 83333.89797128 19.41558297 948631.52671985 -192263.28806168 -1464261.66945632 52303.70823207 65548.22048433 19.41558297 534833.11062932 -806734.46015258 -1464261.66945632
1.7400000000000013 901.99720908 77807.09062231 18.67394173 882597.39185796 -177750.35895158 -1359779.09212767 55655.72974659 54380.11306028 18.67394173 498402.11666732 -749779.08501333 -1359779.09212767
1.7700000000000014 8797.43781682 74113.83097427 17.50600810 837994.60248534 -167848.87323404 -1289005.32755743 58627.12039895 46185.66452428 17.50600810 473864.58953680 -711238.74249342 -1289005.32755743
1.8000000000000014 13662.70353750 72521.00191614 15.83874581 818075.85149949 -163287.55481651 -1257122.48695773 60941.08255405 41619.10191264 15.83874581 463005.24482612 -693928.71941438 -1257122.48695773
1.8300000000000014 15172.00638228 73079.36552908 13.62013925 823555.08566707 -164244.76348742 -1265309.77204874 62403.14352753 40946.68633331 13.62013925 466202.79971952 -698479.97179219 -1265309.77204874
1.8600000000000014 13351.00604591 75629.50866201 10.81113302 852660.94574779 -170357.82934519 -1310823.91218121 62918.72534344 44037.55152199 10.81113302 482461.16043300 -723383.51314940 -1310823.91218121
1.8900000000000015 8561.32358833 79827.67849009 7.38245573 901427.98251374 -180783.80140897 -1387453.36841802 62500.46275196 50392.92282148 7.38245573 509572.38728181 -765239.29109174 -1387453.36841802
1.9200000000000015 1452.75805878 85188.43060907 3.35164673 964186.30566832 -194303.21180106 -1486282.27629554 61264.57203710 59210.06188752 3.35164673 544389.55639442 -819175.79373613 -1486282.27629554
1.9500000000000015 -7112.72575054 91138.57445732 -1.21907184 1034190.14490663 -209455.12285979 -1596679.80691030 59415.24741552 69474.16063737 -1.21907184 583175.72677136 -879390.00222820 -1596679.80691030
1.9800000000000015 -16158.38314666 97076.80399763 -6.22434497 1104319.46383924 -224689.17250042 -1707404.95456157 57217.96410663 80069.36869866 -6.22434497 621992.54394278 -939751.01901126 -1707404.95456157
2.0100000000000016 -24701.19603662 102432.88303403 -11.51767590 1167784.29876217 -238519.69233351 -1807720.81775179 54964.60298893 89897.36943076 -11.51767590 657089.30472236 -994407.08851346 -1807720.81775179
2.0400000000000014 -31859.34591227 106720.80185714 -16.92144866 1218764.47033561 -249667.06517105 -1888410.03009632 52935.04314812 97990.96222558 -16.92144866 685255.34682215 -1038337.89646493 -1888410.03009632
2.070000000000001 -36945.58076421 109581.23677913 -22.24546004 1252926.63664065 -257173.18525605 -1942598.22443937 51361.16492408 103610.10631058 -22.24546004 704104.01786396 -1067801.82433175 -1942598.22443937
2.100000000000001 -39534.73787091 110809.80020982 -27.30820319 1267774.39822942 -260480.62797393 -1966313.74354349 50399.07990934 106309.64239124 -27.30820319 712264.25559462 -1080639.49241081 -1966313.74354349
2.130000000000001 -39496.97311112 110369.25757478 -31.96194516 1262805.09368244 -259469.14755136 -1958739.97192894 50114.27294243 105971.42798887 -31.96194516 709465.65131751 -1076410.43880202 -1958739.97192894
2.1600000000000006 -36993.73957019 108385.06439068 -36.11257138 1239465.87003590 -254447.31202843 -1922147.89103428 50481.28989846 102798.33812153 -36.11257138 696513.30196168 -1056356.14154166 -1922147.89103428
2.1900000000000004 -32438.58487196 105125.71908316 -39.73257436 1200921.91514399 -246101.98140589 -1861528.88619472 51397.56550576 97272.65217587 -39.73257436 675159.64995830 -1023200.40978940 -1861528.88619472
2.22 -26430.36775177 100970.22534910 -42.86543312 1151667.27457615 -235412.42943884 -1783976.31221933 52707.63877575 90085.82330881 -42.86543312 647890.01429162 -980813.46475523 -1783976.31221933
2.25 -19670.08631125 96366.39233336 -45.61595907 1097023.02234139 -223539.22717047 -1697888.33702299 54232.47808019 82050.18091461 -45.61595907 617646.31482192 -933778.52160879 -1697888.33702299
2.28 -12873.83513295 91784.35230938 -48.13297744 1042577.42410044 -211700.44496365 -1612079.90020736 55798.16180239 74004.51404716 -48.13297744 587518.74627942 -886908.38670743 -1612079.90020736
2.3099999999999996 -6693.55537691 87669.95606375 -50.58511755 993625.81063351 -201048.23407562 -1534896.44463671 57258.96204175 66725.07883627 -50.58511755 560436.97900049 -844762.11832138 -1534896.44463671
2.3399999999999994 -1654.80951371 84402.55622370 -53.13419020 954665.74796460 -192558.37774831 -1473417.89077689 58511.49282654 60851.74688397 -53.13419020 538891.28947219 -811209.95883241 -1473417.89077689
2.369999999999999 1883.13364525 82261.05925406 -55.91173366 928994.76581097 -186943.11727397 -1432827.48054739 59498.92939657 56835.77625569 -55.91173366 524709.75267116 -789087.24451232 -1432827.48054739
2.399999999999999 3743.54803671 81401.28188592 -59.00594126 918445.64244152 -184594.84279574 -1415999.66178501 60206.48662127 54912.31021636 -59.00594126 518910.87680870 -779967.40703456 -1415999.66178501
2.429999999999999 3926.87697518 81846.23160941 -62.45439555 923278.51890379 -185564.51393066 -1423335.98493716 60650.74672362 55097.30404755 -62.45439555 521642.57549279 -784070.42778870 -1423335.98493716
2.4599999999999986 2588.55615961 83490.01140410 -66.24654397 942232.92420945 -189574.99907613 -1452852.46207089 60866.73883912 57205.96761124 -66.24654397 532209.52277556 -800309.05755590 -1452852.46207089
2.4899999999999984 5.47989958 86114.04274187 -70.33187791 972726.56750481 -196065.93466449 -1500495.56032433 60895.69845232 60887.94870401 -70.33187791 549182.00016203 -826461.10408391 -1500495.56032433
2.5199999999999982 -3463.22224410 89413.75663847 -74.62929042 1011174.18160775 -204263.88305154 -1560644.64388359 60776.20571687 65673.94158399 -74.62929042 570571.74391836 -859444.49763283 -1560644.64388359
2.549999999999998 -7416.05570992 93032.63788471 -79.04028797 1053389.47272332 -213269.57616688 -1626741.99266107 60540.06583781 71027.95240210 -79.04028797 594054.47586480 -895663.20292157 -1626741.99266107
2.579999999999998 -11446.18492224 96599.89710728 -83.45889326 1095026.54355646 -222152.65057750 -1691982.43454141 60212.76732925 76400.11728371 -83.45889326 617215.04884613 -931386.34020995 -1691982.43454141
2.6099999999999977 -15173.46930574 99767.90361206 -87.77949603 1132015.73836644 -230044.33051100 -1749992.75479122 59817.29814864 81275.82422906 -87.77949603 637790.09893096 -963121.91108666 -1749992.75479122
2.6399999999999975 -18270.33909503 102245.63572740 -91.90221372 1160951.19289185 -236219.10094431 -1795435.01509996 59379.50170090 85217.66303824 -91.90221372 653884.33299693 -987948.58924395 -1795435.01509996
2.6699999999999973 -20481.32601171 103824.95917321 -95.73723666 1179394.14204956 -240158.03739553 -1824478.61735407 58932.84817722 87897.81719836 -95.73723666 664140.21873611 -1003774.97233377 -1824478.61735407
2.699999999999997 -21636.41164142 104397.40146215 -99.20949703 1186065.92204270 -241588.60985960 -1835101.17900075 58520.85711995 89119.36390434 -99.20949703 667846.31212151 -1009504.20069982 -1835101.17900075
2.729999999999997 -21658.38075219 103960.18436100 -102.26346023 1180916.52724779 -240498.29236986 -1827196.64919735 58196.16343567 88825.73923446 -102.26346023 664976.11103367 -1005092.05783069 -1827196.64919735
2.7599999999999967 -20564.61534049 102611.15281129 -104.86953409 1165067.75253460 -237122.02776685 -1802489.07477406 58015.66301848 87098.42093799 -104.86953409 656156.71455635 -991497.90216163 -1802489.07477406
2.7899999999999965 -18462.97337424 100534.00787092 -107.02970787 1140642.49823097 -231906.15779222 -1764269.92914486 58032.98503160 84143.57237918 -107.02970787 642573.62863489 -970538.46218248 -1764269.92914486
2.8199999999999963 -15541.68449922 97975.53405396 -108.78325841 1110502.84767573 -225453.58530031 -1716993.12544099 58289.53401947 80268.79502039 -108.78325841 625824.33510981 -944663.85312715 -1716993.12544099
2.849999999999996 -12053.46481874 95217.56083220 -110.20576348 1077927.48071331 -218456.41703985 -1665775.02325453 58805.89624237 75852.06966261 -110.20576348 607737.81735712 -916681.84512231 -1665775.02325453
2.879999999999996 -8294.23510503 92546.88230601 -111.40321492 1046264.08139022 -211623.44030128 -1615853.88202201 59575.61816873 71305.43794377 -111.40321492 590180.05716787 -889460.79655800 -1615853.88202201
