# Level force for level 30
# start: 0.0, 0.0, 136.57396481481481
# center: 0.0, 0.0, 138.88877777777776
# end: 0.0, 0.0, 141.20359074074074
# as part of FluidModelPart.Drag_structure
# Time Fx Fy Fz Mx My Mz Fx' Fy' Fz' Mx' My' Mz'
0.03 -7668.15250801 1147.84486995 -0.98462035 -147917.32775865 -12822.14584726 471371.21607223 -4610.55374629 6233.85152888 -0.98462035 -113659.97179109 95526.71923517 471371.21607223
0.06 -21985.39920978 3282.39783468 -2.72866311 -423001.30195461 -36679.26345306 1347976.38044041 -13225.01910087 17867.03063578 -2.72866311 -325043.24497943 273170.93314626 1347976.38044041
0.09 -41246.03442237 6168.25353805 -5.10402999 -794479.19360726 -68912.24869808 2531769.63713169 -24803.73673228 33526.96454195 -5.10402999 -610509.94367254 513053.30695008 2531769.63713169
0.12 -63304.53103597 9517.06176331 -7.87541227 -1224412.51498041 -106243.94048202 3901888.43326185 -38033.48426556 51492.64208518 -7.87541227 -940916.20308714 790664.58153751 3901888.43326185
0.15 -85880.03161003 13010.34039966 -10.65654425 -1671281.10916181 -145081.85536672 5326029.01246505 -51526.65279782 69926.05264211 -10.65654425 -1284362.56931422 1079185.84180035 5326029.01246505
0.18 -106875.91495173 16324.09080377 -12.92537020 -2093794.80526617 -181840.22908812 6672557.11235397 -64029.80890384 87115.55951193 -12.92537020 -1609116.96429760 1351956.04613615 6672557.11235397
0.21 -124630.82640900 19155.09028133 -14.12707963 -2454555.85284411 -213253.24843764 7822172.18050180 -74582.60826652 101671.99673086 -14.12707963 -1886425.90642752 1584840.27026689 7822172.18050180
0.24 -138043.92826155 21248.08360395 -13.85498374 -2723256.73478924 -236655.17154676 8678132.15179020 -82587.13377180 112636.46177894 -13.85498374 -2092973.78068498 1758292.82747783 8678132.15179020
0.27 -146561.31220979 22421.50308731 -12.01542030 -2879152.81446724 -250205.11487508 9174202.41178311 -87780.10084570 119488.89460057 -12.01542030 -2212790.21259785 1858946.74576640 9174202.41178311
0.30000000000000004 -150059.06817116 22588.01359019 -8.89658206 -2912609.88775791 -253035.62683087 9279660.06386956 -90135.64709920 122079.92226552 -8.89658206 -2238449.41019850 1880602.99497071 9279660.06386956
0.33000000000000007 -148684.81894573 21765.55658466 -5.06485674 -2825605.57646550 -245309.90861588 9000933.99358087 -89745.47107871 120526.61639333 -5.06485674 -2171465.16395182 1824544.56420273 9000933.99358087
0.3600000000000001 -142727.86193344 20075.70459232 -1.16499360 -2631150.76131850 -228179.22265558 8379748.94893744 -86728.17218307 115119.50589173 -1.16499360 -2021851.62131809 1699157.46998682 8379748.94893744
0.3900000000000001 -132567.61694118 17728.58597716 2.27823732 -2351696.27087745 -203642.85611839 7487982.33789827 -81203.45753955 106275.46427015 2.27823732 -1806897.62493007 1518903.13592705 7487982.33789827
0.42000000000000015 -118700.43206735 14995.93625077 4.99058340 -2016697.18296361 -174326.95067104 6419819.52774965 -73330.15223143 94537.60865776 4.99058340 -1549288.02263644 1302752.48471031 6419819.52774965
0.4500000000000002 -101824.17569343 12177.31760700 6.92796895 -1659581.26061321 -143204.69228830 5282014.30822808 -63389.90126499 80611.22897813 6.92796895 -1274762.17232451 1072240.15429493 5282014.30822808
0.4800000000000002 -82918.47718375 9564.57827164 8.21926434 -1314443.88825355 -113292.33697603 4183308.16368611 -51869.03934723 65395.39565736 8.21926434 -1009561.96660552 849342.40714108 4183308.16368611
0.5100000000000002 -63271.47804509 7410.03375302 9.07227058 -1012805.49487932 -87354.07217492 3224084.30457810 -39500.00606579 49979.37629696 9.07227058 -777930.29025131 654392.97665302 3224084.30457810
0.5400000000000003 -44423.34300942 5902.21506356 9.68631987 -780752.83497320 -67646.89418405 2487276.14010316 -27238.55078947 35585.54338040 9.68631987 -599909.20164392 504242.04643642 2487276.14010316
0.5700000000000003 -28029.09913021 5151.11436275 10.18347186 -636729.63386617 -55729.36939026 2031364.83840541 -16177.17816896 23461.95396209 10.18347186 -489642.45689630 410829.22688209 2031364.83840541
0.6000000000000003 -15670.34810662 5183.23828642 10.59825572 -590159.59536149 -52349.36001939 1886036.60466689 -7415.50646891 14745.71235058 10.59825572 -454322.43932290 380289.26440193 1886036.60466689
0.6300000000000003 -8657.76440964 5945.35512768 10.88512110 -640987.38852435 -57415.38265348 2050762.86644511 -1917.96299663 10325.96485132 10.88512110 -493845.33549932 412647.72266193 2050762.86644511
0.6600000000000004 -7860.76612472 7315.63964568 10.96540635 -780126.70774032 -70048.60260718 2496265.03476500 -385.46262993 10731.33943429 10.96540635 -601164.72714410 502101.04331173 2496265.03476500
0.6900000000000004 -13590.27096234 9120.24783698 10.75216572 -990718.99204666 -88704.46535939 3168557.93067909 -3160.78366400 16058.76184726 10.75216572 -763267.64650364 637820.58854934 3168557.93067909
0.7200000000000004 -25540.41038608 11153.88190496 10.18326799 -1250040.65915334 -111349.34262007 3995058.37468679 -10172.81184673 25946.78290984 10.18326799 -962648.10209354 805176.35159891 3995058.37468679
0.7500000000000004 -42787.00452168 13202.37694395 9.22636812 -1531852.27109922 -135673.17655199 4892100.91348303 -20919.49077909 39590.47130879 9.22636812 -1179118.55183531 987247.70550524 4892100.91348303
0.7800000000000005 -63838.66262823 15065.16100978 7.87360003 -1808960.64933702 -159317.75904722 5773125.71421693 -34488.07373662 55793.42875599 7.87360003 -1391783.00983156 1166473.67426009 5773125.71421693
0.8100000000000005 -86740.74819989 16575.14191816 6.13662997 -2055760.76715218 -180099.49307664 6556785.74173678 -49614.57600788 73055.36650680 6.13662997 -1580991.95179332 1326292.80610782 6556785.74173678
0.8400000000000005 -109235.96760716 17613.64036768 4.05236148 -2250536.02095779 -196206.37571570 7174256.90064519 -64786.76889913 89696.21798987 4.05236148 -1730108.14050445 1452630.42294323 7174256.90064519
0.8700000000000006 -128981.46543060 18118.67531717 1.71333191 -2377321.52523338 -206351.74609722 7575124.00717150 -78391.83067047 104015.50703624 1.71333191 -1826932.89052830 1535107.45257824 7575124.00717150
0.9000000000000006 -143809.76419812 18085.87344528 -0.71568463 -2427174.29431813 -209871.34402096 7731351.99428087 -88900.21570849 114477.50322217 -0.71568463 -1864672.85316798 1567869.95210007 7731351.99428087
0.9300000000000006 -152002.47961690 17562.87936084 -2.97948552 -2398747.35470154 -206756.95158441 7639032.80190871 -95063.15300107 119900.81518749 -2.97948552 -1842369.76338555 1549971.27833996 7639032.80190871
0.9600000000000006 -152534.50508474 16638.72593436 -4.76807856 -2298128.66371659 -197625.52496920 7317804.85904795 -96092.82697186 119623.53884884 -4.76807856 -1764764.71099446 1485280.01331191 7317804.85904795
0.9900000000000007 -145237.83802697 15430.74528098 -5.75579531 -2137976.61368624 -183630.66440294 6808062.77536812 -91787.47552680 113609.84478069 -5.75579531 -1641624.24958890 1381931.27352268 6808062.77536812
1.0200000000000007 -130851.82121586 14070.78144972 -5.68332336 -1936053.69327146 -166327.07652648 6166286.27412332 -82576.66513265 102475.75509203 -5.68332336 -1486607.69896031 1251385.69154670 6166286.27412332
1.0500000000000007 -110943.93495472 12692.34158388 -4.42654235 -1713320.46151309 -147504.03144000 5459000.10620342 -69474.36793491 87424.04954110 -4.42654235 -1315801.61756515 1107199.41579799 5459000.10620342
1.0800000000000007 -87713.26508193 11419.54609426 -2.04275993 -1491794.04168370 -129005.21547725 4756004.47039365 -53947.80605813 70097.48302077 -2.04275993 -1146078.14568062 963637.22033583 4756004.47039365
1.1100000000000008 -63710.01082318 10358.22976674 1.24978314 -1292392.51116000 -112552.72871412 4123572.54016788 -37725.40617339 52374.15519169 1.24978314 -993446.30631075 834272.71088114 4123572.54016788
1.1400000000000008 -41516.93740048 9589.19208826 5.10007077 -1132981.77941634 -99591.97254059 3618284.36863788 -22576.32521827 36137.49072168 5.10007077 -871561.25832129 730716.94005089 3618284.36863788
1.1700000000000008 -23440.84458013 9163.69014147 9.05913948 -1026808.18300361 -91170.14026003 3282071.12537972 -10095.47271963 23054.88759908 9.05913948 -790530.05359929 661596.00476009 3282071.12537972
1.2000000000000008 -11254.66196121 9101.34635810 12.65362864 -981450.76159784 -87858.18585924 3138901.56317338 -1522.62406500 14393.87152047 12.65362864 -756115.60793035 631865.36992272 3138901.56317338
1.2300000000000009 -6019.84763135 9390.23086414 15.43747556 -998367.48096882 -89720.82836209 3193346.25254661 2383.22083911 10896.57100278 15.43747556 -769394.62205769 642510.20976067 3193346.25254661
1.260000000000001 -8001.63773322 9989.29317995 17.04604123 -1073046.69899421 -96335.20064020 3431056.27377771 1405.48464504 12721.50924856 17.04604123 -826877.87102830 690639.32374899 3431056.27377771
1.290000000000001 -16681.73549273 10832.66691581 17.25147279 -1195715.27560730 -106853.39856886 3821008.13855639 -4135.91605437 19455.62052337 17.25147279 -921055.14247113 769941.61702940 3821008.13855639
1.320000000000001 -30856.12440548 11835.82099132 15.95181727 -1352509.81836299 -120101.34629776 4319204.31543237 -13449.38552438 30187.76409213 15.95181727 -1041293.34058263 871444.38778908 4319204.31543237
1.350000000000001 -48801.67613213 12903.02933372 13.18447760 -1526974.88193841 -134703.01383519 4873416.29038831 -25384.17658658 43631.81566602 13.18447760 -1174983.70824931 984484.87919105 4873416.29038831
1.380000000000001 -68487.73646448 13935.76116260 9.13042029 -1701734.29115503 -149217.74650546 5428480.18362742 -38574.07166308 58282.21410122 9.13042029 -1308820.73748079 1097794.97662602 5428480.18362742
1.410000000000001 -87806.67627538 14841.30898726 4.08209295 -1860174.60408960 -162277.74433677 5931637.12312751 -51594.30600119 72583.08645435 4.08209295 -1430089.77019894 1200594.38328657 5931637.12312751
1.440000000000001 -104797.24190194 15541.06712776 -1.58877904 -1987983.59810777 -172713.27014399 6337420.72077717 -63113.64644559 85092.03435143 -1.58877904 -1527843.40762935 1283589.95858992 6337420.72077717
1.470000000000001 -117837.45177198 15977.74981534 -7.45549145 -2074407.27679879 -179654.70208687 6611657.74720753 -72025.68598318 94621.63646824 -7.45549145 -1593862.51048482 1339792.39424947 6611657.74720753
1.500000000000001 -125789.99669736 16120.64140829 -13.08271257 -2113118.86534917 -182602.46221015 6734240.70724465 -77547.94481326 100345.97452702 -13.08271257 -1623320.11843178 1365081.23985146 6734240.70724465
1.5300000000000011 -128088.25633953 15968.38716518 -18.05594008 -2102632.22309628 -181459.55828695 6700453.34193282 -79280.71979893 101863.42949716 -18.05594008 -1615096.78746854 1358474.21911690 6700453.34193282
1.5600000000000012 -124760.22998020 15548.59509755 -22.01668547 -2046235.99833776 -176524.29964220 6520769.69223830 -77224.28760999 99213.32167279 -22.01668547 -1571728.87965386 1322085.82101145 6520769.69223830
1.5900000000000012 -116392.00331585 14914.53474656 -24.70573821 -1951471.03803593 -168445.39076255 6219196.50466999 -71755.40616299 92847.74347806 -24.70573821 -1499007.28235217 1260789.52621654 6219196.50466999
1.6200000000000012 -104038.70101779 14138.86359514 -25.99363971 -1829219.66543782 -158144.59025778 5830372.72312197 -63568.78466913 83564.15732192 -25.99363971 -1405278.74189011 1181628.51753162 5830372.72312197
1.6500000000000012 -89095.57443090 13305.57943524 -25.89981497 -1692509.34702572 -146715.71954315 5395752.48109853 -53591.61940753 72408.55030007 -25.89981497 -1300528.51669913 1093041.15630787 5395752.48109853
1.6800000000000013 -73143.78228432 12500.78381083 -24.55705105 -1555158.23524701 -135310.89587951 4959287.29081372 -42881.07545209 60559.85345765 -24.55705105 -1195342.18600609 1003983.68191644 4959287.29081372
1.7100000000000013 -57786.90230618 11803.43603376 -22.24727470 -1430400.15171792 -125025.87074262 4563053.25099127 -32515.22082369 49207.80014524 -22.24727470 -1099852.28811586 923039.00606415 4563053.25099127
1.7400000000000013 -44494.01481637 11277.50373600 -19.41119893 -1329634.02906830 -116796.33791747 4243262.35777433 -23487.62023229 39436.41896545 -19.41119893 -1022780.72100979 857605.75589139 4243262.35777433
1.7700000000000014 -34463.67856343 10966.14820640 -16.53035923 -1261407.56472973 -111314.52292973 4027029.86638649 -16615.26305660 32123.73857708 -16.53035923 -970661.09686856 813238.58885224 4027029.86638649
1.8000000000000014 -28519.38226397 10888.45664152 -14.10366164 -1230725.30247048 -108973.69675418 3930182.72951853 -12466.94706623 27865.55012198 -14.10366164 -947310.24710058 793198.16720890 3930182.72951853
1.8300000000000014 -27045.29147666 11039.02639280 -12.61588027 -1238733.13693376 -109844.70768137 3956270.68468831 -11318.13858227 26929.67942237 -12.61588027 -953588.53888529 798244.66352740 3956270.68468831
1.8600000000000014 -29965.38065977 11390.33871925 -12.45341304 -1282791.79892415 -113685.16472218 4096816.78006305 -13134.53811697 29242.90961375 -12.45341304 -987458.33076512 826683.22897439 4096816.78006305
1.8900000000000015 -36767.92513461 11897.14345024 -13.86884909 -1356911.13174169 -119978.43213589 4332713.96806270 -17586.29838242 34411.40000326 -13.86884909 -1044318.62568149 874643.49976264 4332713.96806270
1.9200000000000015 -46571.93968268 12502.40202995 -16.92568195 -1452486.88108167 -127997.10051755 4636575.73855964 -24090.80110614 41771.86761913 -16.92568195 -1117570.94094552 936555.70544917 4636575.73855964
1.9500000000000015 -58229.25644247 13143.73541006 -21.51162847 -1559252.88031185 -136883.36603303 4975771.42056699 -31880.27765535 50468.32653250 -21.51162847 -1199349.44160676 1005767.12889957 4975771.42056699
1.9800000000000015 -70452.24451000 13759.85032070 -27.36321980 -1666349.14432215 -145737.84435250 5315820.97639067 -40087.57637296 59546.94331271 -27.36321980 -1281338.99779176 1075234.56175743 5315820.97639067
2.0100000000000016 -81953.76387718 14296.08464319 -34.09058713 -1763399.19995091 -153707.96698514 5623809.09225734 -47841.20378570 68058.92057694 -34.09058713 -1355599.47800182 1138223.58644663 5623809.09225734
2.0400000000000014 -91583.79379246 14708.70085849 -41.22894262 -1841491.87738796 -160067.53709939 5871492.51520595 -54358.89951795 75160.14375692 -41.22894262 -1415316.23493178 1188946.55307017 5871492.51520595
2.070000000000001 -98446.68657575 14967.85354536 -48.28543842 -1893978.07337807 -164280.44274222 6037817.67008278 -59028.44892133 80196.19040479 -48.28543842 -1455408.55418361 1223080.92402492 6037817.67008278
2.100000000000001 -101985.61932369 15059.06148869 -54.79816372 -1917012.72768688 -166043.16240096 6110629.79970473 -61466.35851033 82763.08750425 -54.79816372 -1472942.94547169 1238122.45326494 6110629.79970473
2.130000000000001 -102024.12276963 14983.45757167 -60.38265301 -1909799.87505297 -165303.23619248 6087442.53856214 -61547.04460047 82736.85350956 -60.38265301 -1467319.48162296 1233545.40309539 6087442.53856214
2.1600000000000006 -98761.93452274 14756.75493180 -64.77028494 -1874528.89295228 -162252.74425155 5975230.93378897 -59400.63214354 80269.83510471 -64.77028494 -1440222.10746306 1210762.07601027 5975230.93378897
2.1900000000000004 -92727.47141337 14407.35239996 -67.82757055 -1816020.81582238 -157298.65530540 5789308.89541184 -55380.68725772 75755.76041964 -67.82757055 -1395347.57948191 1172893.68780596 5789308.89541184
2.22 -84695.99739673 13973.56150865 -69.56262155 -1741131.85564981 -151013.72018560 5551439.62174420 -50008.31399849 69769.91419868 -69.56262155 -1337948.96766535 1124383.31647445 5551439.62174420
2.25 -75586.83905925 13500.13636155 -70.12482097 -1657983.79190195 -144073.26832879 5287398.14750483 -43901.92849906 62994.00443545 -70.12482097 -1274246.76737425 1070496.39732825 5287398.14750483
2.28 -66354.01148802 13034.31489764 -69.78285570 -1575105.73448439 -137184.79680348 5024252.56768669 -37702.71902987 56136.02393435 -69.78285570 -1210772.24603517 1016763.64584429 5024252.56768669
2.3099999999999996 -57884.44524673 12621.56362950 -68.89857497 -1500576.79996874 -131017.31328012 4787646.43542562 -32005.69052759 49855.27699078 -68.89857497 -1153711.26162232 968424.80027589 4787646.43542562
2.3399999999999994 -50914.73079803 12301.39165206 -67.88739067 -1441255.09291603 -126137.53101342 4599352.32936202 -27303.75395437 44700.54886478 -67.88739067 -1108313.95316230 929928.54607885 4599352.32936202
2.369999999999999 -45973.48501362 12103.56717940 -67.17808526 -1402165.24948976 -122958.83958824 4475325.89990791 -23949.64857881 41066.67743701 -67.17808526 -1078425.58553801 904535.52697866 4475325.89990791
2.399999999999999 -43351.56405189 12045.25513711 -67.16643216 -1386097.28156528 -121707.74717163 4424428.86147856 -22136.90332757 39171.46650471 -67.16643216 -1066179.16052705 894058.41383105 4424428.86147856
2.429999999999999 -43099.22398058 12129.29749442 -68.17720986 -1393445.34837486 -122410.22515181 4447912.88124693 -21899.04503121 39052.46204988 -68.17720986 -1071871.75534013 898757.55475729 4447912.88124693
2.4599999999999986 -45045.55077158 12344.11269849 -70.42889824 -1422289.98025796 -124898.64489677 4539677.22083788 -23123.40861603 40580.62020970 -70.42889824 -1094027.56862160 917394.21108656 4539677.22083788
2.4899999999999984 -48835.08853066 12665.04507722 -74.01420273 -1468702.95682400 -128837.54455791 4687234.99293789 -25576.08300174 43487.16151801 -74.01420273 -1129631.72174730 947427.91889066 4687234.99293789
2.5199999999999982 -53975.73407367 13057.21472997 -78.89286573 -1527233.59408334 -133764.84376406 4873257.71521781 -28933.76250404 47399.45266199 -78.89286573 -1174503.25894216 985331.20272230 4873257.71521781
2.549999999999998 -59892.03550207 13479.49883586 -84.89313464 -1591519.79639343 -139143.79253489 5077518.28389466 -32818.61940874 51881.50947641 -84.89313464 -1223763.95968386 1026984.92116099 5077518.28389466
2.579999999999998 -65979.59395556 13889.13462957 -91.73408821 -1654957.92462600 -144419.79071476 5279022.25666459 -36833.51702453 56475.71958729 -91.73408821 -1272352.18443341 1068111.75772952 5279022.25666459
2.6099999999999977 -71656.66408178 14246.42574993 -99.05385168 -1711363.30424036 -149076.32806826 5458110.03708824 -40595.16883399 60742.65734488 -99.05385168 -1315529.47999363 1104703.71501071 5458110.03708824
2.6399999999999975 -76410.12206651 14518.93784509 -106.44961307 -1755557.19936233 -152684.38528745 5598325.06839034 -43763.67605863 64296.55487041 -106.44961307 -1349330.56464802 1133402.23621191 5598325.06839034
2.6699999999999973 -79833.49938583 14684.70651791 -113.52141560 -1783826.23634123 -154940.70591817 5687875.58566789 -46067.15322302 66834.46434012 -113.52141560 -1370915.25201192 1151796.00433879 5687875.58566789
2.699999999999997 -81655.18295140 14734.13506116 -119.91436486 -1794215.10865972 -155691.65485825 5720565.02573095 -47320.32676729 68157.54040063 -119.91436486 -1378792.29516507 1158611.04531622 5720565.02573095
2.729999999999997 -81755.37803557 14670.41378708 -125.35842504 -1786631.39480059 -154940.91631486 5696123.55967158 -47436.23313577 68183.33127907 -125.35842504 -1372898.94735377 1153779.40213479 5696123.55967158
2.7599999999999967 -80171.03957972 14508.40673480 -129.69829248 -1762760.92792625 -152841.06469732 5619936.21054369 -46430.49295520 66948.47852798 -129.69829248 -1354535.15903859 1138385.25245610 5619936.21054369
2.7899999999999965 -77087.97498882 14272.43583478 -132.90776455 -1725811.00375426 -149670.70665109 5502222.96320291 -44417.29369972 64601.56602536 -132.90776455 -1326165.83541897 1114499.49218303 5502222.96320291
2.8199999999999963 -72820.50254394 13993.12651353 -135.08998833 -1680115.21644659 -145800.21072407 5356779.02267596 -41597.23651051 61386.50580596 -135.08998833 -1291117.18042551 1084924.54502266 5356779.02267596
2.849999999999996 -67780.32654725 13703.79383786 -136.46705948 -1630646.01213993 -141649.96319335 5199422.34413431 -38237.88298186 57617.97408333 -136.46705948 -1253202.50242779 1052879.20337010 5199422.34413431
