# Level force for level 39
# start: 0.0, 0.0, 178.24059814814814
# center: 0.0, 0.0, 180.5554111111111
# end: 0.0, 0.0, 182.8702240740741
# as part of FluidModelPart.Drag_structure
# Time Fx Fy Fz Mx My Mz Fx' Fy' Fz' Mx' My' Mz'
0.03 21077.98432983 3226.38077615 -212463.76105693 -7587.22865293 -105973.43507241 -40642.65413066 17185.78137888 -12622.98992786 -212463.76105693 -80299.51539623 -69569.55373443 -40642.65413066
0.06 60220.87291955 9225.39071225 -607587.19095829 -21709.67041247 -303096.98177069 -116174.37100713 49105.92394211 -36059.25127866 -607587.19095829 -229672.98633322 -198970.87600125 -116174.37100713
0.09 113137.40374535 17323.46904918 -1141175.16173029 -40800.29636686 -569803.41248099 -218158.89913765 92249.76783253 -67750.68295583 -1141175.16173029 -431762.02314397 -374061.69067312 -218158.89913765
0.12 174576.96288698 26689.40692650 -1758744.94071363 -62923.57435321 -879627.48345049 -336192.29089207 142316.81491991 -104572.29367276 -1758744.94071363 -666484.24458755 -577496.87234425 -336192.29089207
0.15 238739.10128124 36415.01631491 -2400661.40129613 -85957.44207260 -1203268.60528599 -458872.55879604 194563.34242364 -143064.73247705 -2400661.40129613 -911620.48056958 -790058.30020362 -458872.55879604
0.18 299712.94278028 45600.86885155 -3007601.08277532 -107786.28225597 -1510803.27273993 -574834.14891624 244173.73784224 -179684.37065638 -3007601.08277532 -1144515.65029532 -992082.82809115 -574834.14891624
0.21 351946.00503005 53437.54688118 -3525810.51144203 -126486.11996154 -1774056.82036442 -673750.90539846 286649.45853792 -211077.35499861 -3525810.51144203 -1343886.80104071 -1165008.41473914 -673750.90539846
0.24 390731.40244408 59274.62229801 -3911709.20574843 -140486.91628539 -1969090.83373607 -747226.39393253 318202.31166993 -234375.33691155 -3911709.20574843 -1491696.73248043 -1293018.23013366 -747226.39393253
0.27 412677.02726465 62671.64457080 -4135459.50857409 -148700.48064716 -2078611.78276754 -789494.35184471 336122.26928286 -247491.17955461 -4135459.50857409 -1574947.60528049 -1364653.36881787 -789494.35184471
0.30000000000000004 416089.03228959 63427.65418946 -4183209.90423342 -150603.72530617 -2093963.36929018 -797875.89784195 339069.50070144 -249369.25191720 -4183209.90423342 -1587148.61341728 -1374162.78254537 -797875.89784195
0.33000000000000007 401198.15072174 61588.07302160 -4057827.11377556 -146270.77233354 -2016303.61121768 -772939.22417108 327239.27704863 -240140.58890106 -4057827.11377556 -1529171.01142938 -1322312.90141651 -772939.22417108
0.3600000000000001 370162.97555951 57429.72399034 -3778064.28462294 -136350.94057169 -1856637.03494809 -718348.09602191 302353.69743756 -221135.80288707 -3778064.28462294 -1409255.31231328 -1216425.96291447 -718348.09602191
0.3900000000000001 326819.31103133 51426.51151207 -3376261.32453087 -121990.64842655 -1634570.22751956 -640422.47293838 267460.18607592 -194732.11603002 -3376261.32453087 -1242076.10694848 -1069555.27746096 -640422.47293838
0.42000000000000015 276211.79188992 44199.46396455 -2894822.07133043 -104711.98356292 -1375898.84200729 -547424.67032748 226564.97178319 -164057.49039490 -2894822.07133043 -1046949.95505891 -898864.84776124 -547424.67032748
0.4500000000000002 223962.02741449 36455.64115250 -2381839.80610439 -86253.53585967 -1109402.66135549 -448697.72860838 184143.09938451 -132587.03724164 -2381839.80610439 -845456.60501856 -723475.68480318 -448697.72860838
0.4800000000000002 175589.86722127 28921.40196758 -1886330.83548894 -68395.68804981 -863354.38451175 -353717.15681855 144611.30527250 -103710.26636711 -1886330.83548894 -658846.79467934 -562120.68503145 -353717.15681855
0.5100000000000002 135888.04028742 22275.87548698 -1453566.86084617 -52787.19907287 -662289.32028155 -271175.26538699 111838.77738310 -80335.93215568 -1453566.86084617 -505635.45590279 -430983.08305424 -271175.26538699
0.5400000000000003 108435.40065495 17090.65881810 -1120968.76115898 -40791.97912583 -524476.48449195 -208188.82317379 88760.32786902 -64590.48637857 -1120968.76115898 -399705.16381503 -342016.59369925 -208188.82317379
0.5700000000000003 95296.94848556 13781.26666633 -914942.07172071 -33371.09441604 -460351.87479887 -169702.17469366 77129.94561363 -57640.29138742 -914942.07172071 -349114.85955942 -301921.00524502 -169702.17469366
0.6000000000000003 96921.48846090 12574.76738086 -848913.46022532 -31010.67100279 -471982.48693246 -158130.90331806 77425.54502024 -59642.13844655 -848913.46022532 -355669.87286645 -311814.16135602 -158130.90331806
0.6300000000000003 112218.43622789 13496.20029584 -922687.84307683 -33699.42647158 -553468.84792099 -173263.00513258 88893.67198033 -69807.16248145 -922687.84307683 -415190.66852059 -367532.48256028 -173263.00513258
0.6600000000000004 138781.93357208 16374.38227762 -1123107.40054495 -40954.27728179 -692120.49109397 -212409.43923723 109712.08308124 -86555.20958875 -1123107.40054495 -518362.13983526 -460444.04546616 -212409.43923723
0.6900000000000004 173221.83754089 20865.62779712 -1425873.13044457 -51887.58239753 -870184.83239942 -270773.54204669 137240.56288381 -107732.10906570 -1425873.13044457 -652003.65724798 -578623.53450264 -270773.54204669
0.7200000000000004 211566.43196366 26492.09936578 -1798295.55809901 -65309.52728502 -1066944.57422292 -341994.07696636 168332.80182236 -130867.31560353 -1798295.55809901 -800624.55320254 -708262.93396389 -341994.07696636
0.7500000000000004 249700.01425877 32690.54868548 -2202677.93634991 -79852.37528209 -1260992.76201598 -418805.18104940 199680.28200097 -153448.86468854 -2202677.93634991 -948120.68910447 -835192.37699283 -418805.18104940
0.7800000000000005 283796.64071199 38866.54987912 -2600001.67362977 -94105.06251803 -1432492.68827664 -493750.30599157 228157.33010626 -173191.72814456 -2600001.67362977 -1079467.62173105 -946382.96603007 -493750.30599157
0.8100000000000005 310707.19627552 44449.38273590 -2953576.71083624 -106746.07558508 -1565209.26766246 -559884.11116528 251133.62540199 -188272.70549777 -2953576.71083624 -1182250.96105142 -1031289.21322889 -559884.11116528
0.8400000000000005 328255.96022105 48943.02417133 -3232336.51333231 -116662.98242003 -1648087.21243718 -611398.98411988 266719.95972053 -197504.07115388 -3232336.51333231 -1247866.82988382 -1082880.45791851 -611398.98411988
0.8700000000000006 335410.37829514 51969.20562131 -3413496.35395599 -123048.21682001 -1676179.13357992 -644120.80472509 273918.73068055 -200423.17526513 -3413496.35395599 -1272245.86036409 -1098229.40331142 -644120.80472509
0.9000000000000006 332304.28022510 53298.99160037 -3484353.31521112 -125462.50399393 -1650798.23015176 -655831.21790486 272662.68835551 -197286.53157346 -3484353.31521112 -1256006.01026982 -1078575.23555231 -655831.21790486
0.9300000000000006 320120.25318853 52870.17702590 -3443085.05376863 -123860.92538828 -1578900.20527323 -646391.30847821 263744.06252231 -188974.34112722 -3443085.05376863 -1204033.94223163 -1028868.14169944 -646391.30847821
0.9600000000000006 300857.23361871 50788.90175714 -3298497.80014845 -118579.56067189 -1471806.36716933 -617661.26357021 248651.36690230 -176825.01321933 -3298497.80014845 -1124572.67428018 -956875.85135776 -617661.26357021
0.9900000000000007 277031.94701453 47314.82244573 -3068774.08351265 -110287.57629183 -1343524.42059679 -573233.37228039 229347.80014130 -162434.53653728 -3068774.08351265 -1028000.32157030 -872030.13541714 -573233.37228039
1.0200000000000007 251359.92200879 42831.76019893 -2779368.54035303 -99907.57660878 -1208920.07987042 -518011.39276091 208024.93345776 -147451.67728412 -2779368.54035303 -925480.91130094 -784190.26147697 -518011.39276091
1.0500000000000007 226461.39522497 37806.46968535 -2460283.30308709 -88516.00749369 -1082018.33029063 -457685.19813655 186865.59932777 -133399.17715331 -2460283.30308709 -827692.76785899 -702512.22957430 -457685.19813655
1.0800000000000007 204621.12599557 32740.18542097 -2143012.27055502 -77233.51070205 -974628.17965851 -398155.84899107 167839.79289397 -121538.17863702 -2143012.27055502 -743778.53412430 -634553.85581977 -398155.84899107
1.1100000000000008 187617.11915279 28118.23028937 -1857468.85887305 -67116.30040848 -895403.60107593 -344968.67271999 152547.92853220 -112782.74590704 -1857468.85887305 -680604.34936664 -585687.56707265 -344968.67271999
1.1400000000000008 176620.68826446 24363.07797625 -1629201.36622792 -59059.23646358 -849368.05682660 -302806.81971566 142116.98401722 -107662.38872206 -1629201.36622792 -642355.09930043 -558832.72611023 -302806.81971566
1.1700000000000008 172161.97034868 21795.65662846 -1477156.53543383 -53719.46558822 -837864.03137654 -275091.92827085 137148.75329838 -106325.04009359 -1477156.53543383 -630444.73669779 -554473.93989950 -275091.92827085
1.2000000000000008 174152.17731911 20608.54406725 -1412182.49590896 -51465.86568208 -858859.32544957 -263723.73937904 137716.62680108 -108571.74428041 -1412182.49590896 -643697.11573413 -570913.39048726 -263723.73937904
1.2300000000000009 181950.56343599 20853.05635924 -1436377.44530100 -52358.47182272 -907513.08667823 -268974.38023089 143403.81480638 -113913.13968622 -1436377.44530100 -678731.68808412 -604685.62712730 -268974.38023089
1.260000000000001 194467.48855521 22440.78934873 -1543300.84700086 -56157.75443446 -976925.78281313 -289541.18505101 153377.31420137 -121641.24555404 -1543300.84700086 -730500.37471995 -651081.31676633 -289541.18505101
1.290000000000001 210289.65989832 25158.66363241 -1718981.19601212 -62360.20512394 -1058967.84700189 -322743.31528026 166487.10618758 -130907.38286744 -1718981.19601212 -792898.66959288 -704708.02175424 -322743.31528026
1.320000000000001 227819.74863693 28695.10529478 -1943583.38803550 -70257.76650433 -1145126.46556672 -364837.04863559 181383.39269019 -140802.38560859 -1943583.38803550 -859406.43224464 -760046.94599218 -364837.04863559
1.350000000000001 245418.68144371 32674.39668983 -2193547.62142322 -79013.69426512 -1227290.62397550 -411414.79497999 196641.50134926 -150432.92640815 -2193547.62142322 -923696.64172121 -811954.40367828 -411414.79497999
1.380000000000001 261541.57284904 36695.47947455 -2443979.69863158 -87747.28964824 -1298418.49548645 -457848.00927480 210885.44209910 -158990.19734841 -2443979.69863158 -980167.22651752 -856073.81943549 -457848.00927480
1.410000000000001 274858.83720930 40371.37546474 -2671061.48336571 -95619.39956376 -1353043.63871846 -499731.53540359 222901.42101670 -165807.67430280 -2671061.48336571 -1024359.45802366 -889133.20633462 -499731.53540359
1.440000000000001 284355.27914082 43365.49520340 -2854258.54321058 -101910.59547493 -1387595.53601729 -533288.61005291 231733.58187450 -170405.51041883 -2854258.54321058 -1053239.88619709 -909116.53992693 -533288.61005291
1.470000000000001 289401.52300096 45421.58273858 -2978128.26081669 -106084.90930919 -1400532.18829217 -555700.78905411 236755.68856637 -172519.87023302 -2978128.26081669 -1065339.16636552 -915312.44885734 -555700.78905411
1.500000000000001 289792.18488273 46384.70317668 -3033573.83667447 -107833.52230787 -1392291.47544187 -565334.83456806 237712.95722500 -172115.08090589 -3033573.83667447 -1060748.55853629 -908248.92881004 -565334.83456806
1.5300000000000011 285748.81344863 46211.70924246 -3018444.65251958 -107094.43277887 -1365094.14079393 -561848.71561194 234731.53668110 -169378.31072998 -3018444.65251958 -1040994.52355868 -889540.12426814 -561848.71561194
1.5600000000000012 277885.12589710 44970.53497577 -2937447.71126730 -104047.62927189 -1322619.61061746 -546170.11841090 228293.42714767 -164695.48667777 -2937447.71126730 -1008806.07982246 -861660.51137337 -546170.11841090
1.5900000000000012 267138.37391368 42828.79753160 -2801400.95046912 -99086.57320485 -1269601.47815671 -520353.54511268 219179.88887417 -158610.82254485 -2801400.95046912 -967808.60244676 -827679.02677139 -520353.54511268
1.6200000000000012 254671.88043436 40033.26758614 -2625925.03121490 -92770.15582353 -1211370.86271365 -487334.25081034 208388.00861588 -151772.41864944 -2625925.03121490 -922166.95783117 -790970.14528207 -487334.25081034
1.6500000000000012 241757.83157334 36882.51944092 -2429721.63751638 -85760.58248998 -1153382.54334614 -450606.25237439 197028.48171438 -144868.72250654 -2429721.63751638 -876206.50713941 -754922.72826507 -450606.25237439
1.6800000000000013 229652.29521855 33695.71326656 -2232624.85949641 -78754.19981251 -1100757.48681472 -413859.43474712 186215.16261179 -138562.22791639 -2232624.85949641 -834040.71210290 -722665.45463421 -413859.43474712
1.7100000000000013 219475.31882720 30780.74816569 -2053628.00807401 -72412.33007420 -1057872.51830608 -380613.21805494 176957.76200375 -133427.21048784 -2053628.00807401 -799232.08096211 -696825.58168814 -380613.21805494
1.7400000000000013 212108.53013797 28404.94067290 -1909082.44434732 -67299.34640668 -1028025.87937611 -353883.62343457 170068.70617707 -129898.05383906 -1909082.44434732 -774511.89475570 -679336.24632852 -353883.62343457
1.7700000000000014 208120.38955844 26770.96087784 -1811238.47150720 -63833.52077366 -1013202.03661877 -335915.00512261 166093.26673556 -128233.41078436 -1811238.47150720 -761579.14621121 -671304.91539908 -335915.00512261
1.8000000000000014 207726.90006293 26000.21116492 -1767255.20718980 -62254.33813313 -1013959.38646361 -328000.06637356 165270.02529635 -128500.17404236 -1767255.20718980 -760998.02266839 -672957.09336395 -328000.06637356
1.8300000000000014 210789.58923053 26124.81836493 -1778752.62633535 -62609.32176077 -1029443.29863238 -330401.05609758 167523.78417154 -130577.71172532 -1778752.62633535 -772197.81329253 -683654.86132748 -330401.05609758
1.8600000000000014 216850.37163172 27088.69771620 -1841921.52736726 -64758.87241137 -1057530.62692393 -342374.64883747 172490.97013225 -134181.76643497 -1841921.52736726 -793578.51543445 -701995.63978630 -342374.64883747
1.8900000000000015 225195.62535331 28757.04343956 -1948152.11880579 -68399.32980546 -1095078.80384382 -362292.44843062 179571.65420386 -138903.05335788 -1948152.11880579 -822703.27806568 -725972.01819756 -362292.44843062
1.9200000000000015 234941.08963608 30933.04813922 -2085093.98378016 -73099.84416828 -1138256.55786887 -387840.52169457 188001.40576304 -144255.46955902 -2085093.98378016 -856558.32631420 -753179.53528406 -387840.52169457
1.9500000000000015 245126.56653137 33379.84183518 -2238024.84039035 -78349.71870682 -1182919.11866985 -416275.09699974 196933.76995990 -149727.54492672 -2238024.84039035 -891851.74780832 -781048.51300502 -416275.09699974
1.9800000000000015 254809.43789421 35845.38048045 -2391382.38707429 -83610.70769426 -1224987.54185885 -444706.96479710 205523.99305727 -154830.96983339 -2391382.38707429 -925318.69610785 -807075.29932701 -444706.96479710
2.0100000000000016 263148.00155275 38087.71741917 -2530305.72474485 -88369.41971205 -1260797.64733810 -470386.17246938 213005.81962065 -159141.65308662 -2530305.72474485 -954005.18206473 -829031.95020891 -470386.17246938
2.0400000000000014 269468.32141474 39898.18630530 -2642038.87962121 -92185.11087242 -1287391.91378788 -490959.92707864 218755.15548084 -162330.59929379 -2642038.87962121 -975508.26930647 -845138.83526181 -490959.92707864
2.070000000000001 273311.44779831 41120.32811554 -2717068.11880904 -94728.49275848 -1302738.74046709 -504680.51292500 222336.84096921 -164183.91525898 -2717068.11880904 -988158.55709980 -854192.23789759 -504680.51292500
2.100000000000001 274459.57886035 41662.80175785 -2749894.86937139 -95808.49964903 -1305866.78459023 -510545.67872223 223532.27901997 -164612.17972755 -2749894.86937139 -991134.09850716 -855640.41891288 -510545.67872223
2.130000000000001 272942.65574764 41505.32625090 -2739384.56529888 -95384.36034459 -1296916.81235563 -508361.18527435 222348.30040159 -163650.90510685 -2739384.56529888 -984505.60067032 -849611.74463271 -508361.18527435
2.1600000000000006 269025.81373994 40697.21009810 -2688674.70609523 -93563.51327282 -1277104.93000686 -498722.51459869 219007.25044548 -161452.70397400 -2688674.70609523 -969208.95100147 -836890.16158778 -498722.51459869
2.1900000000000004 263180.34026847 39349.10051549 -2604669.25047450 -90584.46074214 -1248605.84738242 -482921.07110150 213920.61908691 -158272.58747073 -2604669.25047450 -946950.54817417 -818844.77525239 -482921.07110150
2.22 256039.52201230 37618.95717455 -2497186.43585083 -86787.92455364 -1214358.58572163 -462787.06174467 207647.90198595 -154446.66254737 -2497186.43585083 -920049.52073286 -797312.86077889 -462787.06174467
2.25 248341.20889974 35694.06131103 -2377858.96998347 -82578.54891652 -1177800.67573390 -440486.53064947 200843.26566219 -150364.24005996 -2377858.96998347 -891222.69661695 -774438.99277812 -440486.53064947
2.28 240860.94588555 33771.02645921 -2258906.65213513 -78382.32829500 -1142551.53131100 -418294.61782677 194194.12997562 -146434.68634174 -2258906.65213513 -863330.61150767 -752481.25978249 -418294.61782677
2.3099999999999996 234339.95114075 32035.96722256 -2151909.15908451 -74603.84777409 -1112066.34681307 -398367.63831128 188356.21821949 -143050.51888960 -2151909.15908451 -839102.54162453 -733596.76829720 -398367.63831128
2.3399999999999994 229414.29146248 30646.77572371 -2066700.94268365 -71587.87029370 -1089294.13781573 -382537.49702957 183890.94412996 -140549.85825849 -2066700.94268365 -820867.54009164 -719627.00302088 -382537.49702957
2.369999999999999 226552.20237609 29719.13813092 -2010492.02408927 -69587.96356341 -1076375.10322380 -372147.10916963 181211.20269627 -139181.99448948 -2010492.02408927 -810318.25551457 -711906.01366527 -372147.10916963
2.399999999999999 226007.27132788 29317.50463071 -1987290.69310945 -68745.37326471 -1074417.04874713 -367941.39597392 180541.88048525 -139080.66782157 -1987290.69310945 -808337.90060221 -711117.26138086 -367941.39597392
2.429999999999999 227793.04641235 29451.51138215 -1997669.89351429 -69080.91021905 -1083377.37183115 -370022.28525614 181899.37123982 -140248.64441080 -1997669.89351429 -814911.06627229 -717215.90613944 -370022.28525614
2.4599999999999986 231683.68179260 30078.04846748 -2038882.87519898 -70498.64011761 -1102073.95436790 -377869.18997015 185093.49452202 -142556.71044960 -2038882.87519898 -829134.03299421 -729433.90001103 -377869.18997015
2.4899999999999984 237240.68378039 31108.26303889 -2105298.98811783 -72801.78858826 -1128322.85457749 -390420.15364937 189751.36002018 -145757.63252871 -2105298.98811783 -849323.38023277 -746366.10344624 -390420.15364937
2.5199999999999982 243863.22724725 32418.67148010 -2189100.60834992 -75716.99299925 -1159189.32253985 -406202.53109568 195360.80410920 -149513.87922793 -2189100.60834992 -873210.62984779 -766130.63144614 -406202.53109568
2.549999999999998 250856.58799009 33864.98983377 -2281159.92225819 -78924.80602366 -1191325.51760400 -423498.03960622 201328.55842938 -153436.23051684 -2281159.92225819 -898202.61764153 -786586.08655520 -423498.03960622
2.579999999999998 257509.96893399 35297.25660550 -2372000.89026500 -82093.83712870 -1221349.66494671 -440525.11357097 207045.97475939 -157128.11575333 -2372000.89026500 -921673.73921107 -805575.52135641 -440525.11357097
2.6099999999999977 263174.61018278 36574.72718462 -2452748.01117769 -84912.44374425 -1246223.13843896 -455618.10963009 211954.78910866 -160230.31388408 -2452748.01117769 -941254.99684045 -821170.66728309 -455618.10963009
2.6399999999999975 267332.73898292 37579.08807180 -2515969.66198505 -87118.75803506 -1263578.10452945 -467386.83564620 215605.22057438 -162460.36456162 -2515969.66198505 -955086.91084676 -831882.38169648 -467386.83564620
2.6699999999999973 269649.43990405 38224.80540088 -2556338.13814030 -88525.56141442 -1271957.73779871 -474841.27750536 217699.96660781 -163641.92839081 -2556338.13814030 -962006.96656465 -836812.91699569 -474841.27750536
2.699999999999997 270001.94602345 38465.76802095 -2571049.91192734 -89034.78431764 -1270943.66373805 -477469.91590546 218119.61237791 -163720.80155558 -2571049.91192734 -961649.98288773 -835735.78338277 -477469.91590546
