# Level force for level 51
# start: 0.0, 0.0, 233.79610925925925
# center: 0.0, 0.0, 236.1109222222222
# end: 0.0, 0.0, 238.42573518518518
# as part of FluidModelPart.Drag_structure
# Time Fx Fy Fz Mx My Mz Fx' Fy' Fz' Mx' My' Mz'
0.03 5245.63423565 1928.33407458 -0.47177547 -7295.64654822 -11998.24214940 14242.41681329 5072.76164019 -2345.68543912 -0.47177547 -13642.83953354 -3325.23723877 14242.41681329
0.06 14933.58768820 5513.75936620 -1.33470701 -20868.33203769 -34473.04825278 40730.99754668 14458.45775944 -6660.82448410 -1.33470701 -39132.26528361 -9619.98709181 40730.99754668
0.09 28030.02153906 10355.26170086 -2.52042857 -39199.57767837 -64891.46435401 76494.15050567 27142.49407671 -12497.94253744 -2.52042857 -73603.48168187 -18166.90728982 76494.15050567
0.12 43306.24282129 15958.65027304 -3.96311242 -60418.11749250 -100141.06863623 117873.33250988 41906.60779330 -19337.66814000 -3.96311242 -113532.48929342 -28088.36812248 117873.33250988
0.15 59391.81136239 21783.15505556 -5.61088742 -82475.85451859 -136818.40331326 160871.74623970 57399.36921672 -26593.33590587 -5.61088742 -155064.45678817 -38425.98475967 160871.74623970
0.18 74832.32371042 27290.89356401 -7.43930001 -103335.01242263 -171534.98285650 201526.12585341 72212.01945133 -33616.86764383 -7.43930001 -194362.43760659 -48224.66157052 201526.12585341
0.21 88176.66234643 31994.40980565 -9.45493390 -121147.87601237 -201213.55239203 236260.93323476 84973.78002119 -39726.85175393 -9.45493390 -227943.95201773 -56614.98270835 236260.93323476
0.24 98106.67733626 35498.26076839 -11.67437419 -134414.09116207 -223351.43363949 262191.41391936 94472.95773380 -44270.83591449 -11.67437419 -252978.42866195 -62888.19796650 262191.41391936
0.27 103599.84166519 37531.35005663 -14.12038283 -142103.59400218 -236228.62870833 277350.97923324 99794.82270344 -46717.47843918 -14.12038283 -267521.28021998 -66556.45032014 277350.97923324
0.30000000000000004 104091.96377361 37967.34782564 -16.76523679 -143734.79833538 -239042.63145833 280826.02590029 100451.10256252 -46757.16434017 -16.76523679 -270664.51629230 -67392.81510143 280826.02590029
0.33000000000000007 99598.56092092 36831.59960099 -19.52601098 -139402.08116058 -231953.93979514 272793.44846899 96470.69166342 -44382.94398380 -19.52601098 -262588.36065225 -65444.04685191 272793.44846899
0.3600000000000001 90754.77472827 34293.81349714 -22.27455062 -129749.17213612 -216037.37481746 254462.57159173 88422.70471199 -39923.92855884 -22.27455062 -244508.01219395 -61014.97325238 254462.57159173
0.3900000000000001 78750.39342147 30647.38037828 -24.73961762 -115890.40216393 -193148.32267331 227926.69022574 77355.90770051 -34013.96671835 -24.73961762 -218523.37798166 -54629.59949255 227926.69022574
0.42000000000000015 65169.91466727 26277.58312398 -26.66819222 -99289.68547719 -165711.82053308 195946.74560777 64663.14581074 -27501.03137041 -26.66819222 -187384.36192451 -46967.54211891 195946.74560777
0.4500000000000002 51759.78484464 21621.67289419 -27.75844058 -81607.82449576 -136470.98977357 161675.11078628 51888.52638048 -21310.86333232 -27.75844058 -154205.00840297 -38794.11620530 161675.11078628
0.4800000000000002 40175.17791719 17125.42391290 -27.75204108 -64536.89658784 -108213.93300582 128352.91509489 40517.64412013 -16298.63736112 -27.75204108 -122153.28306128 -30884.32863328 128352.91509489
0.5100000000000002 31753.25982243 13200.53409008 -26.51914696 -49638.21445879 -83510.14662424 99006.31945634 31787.13251560 -13118.75817484 -26.51914696 -94150.10902568 -23951.07292608 99006.31945634
0.5400000000000003 27351.58953434 10187.17514615 -24.13259460 -38200.22040570 -64480.51821351 76171.97717633 26543.91506294 -12137.07380898 -24.13259460 -72606.24657489 -18582.97679150 76171.97717633
0.5700000000000003 27270.94615351 8325.10311673 -20.90311462 -31129.44272392 -52620.67071291 61678.30499031 25170.20782244 -13396.73408661 -20.90311462 -59220.27313633 -15196.59304704 61678.30499031
0.6000000000000003 31261.96530137 7735.87522067 -17.35924126 -28883.43043184 -48691.28882914 56502.35950092 27575.63748477 -16635.45783087 -17.35924126 -54853.61003808 -14006.27099351 56502.35950092
0.6300000000000003 38600.40330176 8416.98593215 -14.16397706 -31449.46098149 -52682.04102092 60714.60363707 33246.31476098 -21342.89910143 -14.16397706 -59489.95557732 -15013.70132797 60714.60363707
0.6600000000000004 48210.31299725 10248.07468812 -12.01158041 -38368.23421776 -63848.75860094 73515.44699153 41336.32234956 -26843.35613740 -12.01158041 -72278.32877460 -18017.45157953 73515.44699153
0.6900000000000004 58813.59128414 13007.44411353 -11.52207950 -48797.42991926 -80816.46745712 93347.12189846 50785.14116153 -32389.83728437 -11.52207950 -91650.86577086 -22640.87857009 93347.12189846
0.7200000000000004 69088.51451210 16397.26246313 -13.15289391 -61607.05421842 -101735.32959518 118071.49756092 60447.57259419 -37258.34163304 -13.15289391 -115500.50724978 -28374.97563623 118071.49756092
0.7500000000000004 77824.23487724 20074.38739804 -17.13943644 -75496.80639496 -124472.16536260 145190.90484070 69224.77967967 -40835.30876503 -17.13943644 -141399.41595667 -34630.80843707 145190.90484070
0.7800000000000005 84059.11201531 23683.94088096 -23.42928784 -89123.18366167 -146819.27188053 172091.05884527 76185.84332869 -42691.69292440 -23.42928784 -166836.51028370 -40797.29522750 172091.05884527
0.8100000000000005 87189.70949281 26892.55217749 -31.66804137 -101225.45293375 -166700.96723177 196282.90832748 80668.34084017 -42636.52882393 -31.66804137 -189452.58855808 -46298.18016181 196282.90832748
0.8400000000000005 87035.84263703 29418.32288493 -41.23435845 -110739.18118646 -182359.37154963 215623.98837070 82345.53013800 -40741.73893186 -41.23435845 -207251.97419565 -50643.12227566 215623.98837070
0.8700000000000006 83849.54687588 31055.05302088 -51.30960797 -116887.52425527 -192503.67288660 228501.33136886 81249.82177653 -37331.34461418 -51.30960797 -218772.61353843 -53468.69146442 228501.33136886
0.9000000000000006 78263.10686003 31688.50095323 -60.97689864 -119242.50525162 -196410.95221640 233961.40195350 77747.52748713 -32933.21966779 -60.97689864 -223200.70028061 -54566.33214243 233961.40195350
0.9300000000000006 71183.10791812 31303.63089193 -69.33866409 -117751.35052548 -193971.32284638 231777.33432033 72469.06799428 -28199.04863539 -69.33866409 -220421.21619085 -53895.65928996 231777.33432033
0.9600000000000006 63647.97854166 29982.01329833 -75.64960731 -112726.42072825 -185675.25463994 222447.48363430 66206.40215249 -23805.43231875 -75.64960731 -211001.84817028 -51582.61513861 222447.48363430
0.9900000000000007 56674.74560455 27890.40556622 -79.42752364 -104800.60201421 -172545.76880362 207125.74717309 59796.59184492 -20353.60203308 -79.42752364 -196113.49954276 -47903.06682940 207125.74717309
1.0200000000000007 51121.60452204 25261.32145148 -80.54888572 -94853.67037189 -156022.83508887 187490.42582732 54010.88492274 -18285.98152259 -80.54888572 -177396.47825169 -43253.13117089 187490.42582732
1.0500000000000007 47587.01639593 22368.07151546 -79.27742072 -83917.73354834 -137811.54290370 165565.06298972 49465.71704065 -17832.48693935 -79.27742072 -156786.27496682 -38108.67805915 165565.06298972
1.0800000000000007 46357.27823104 19496.84522614 -76.23415246 -73071.97067208 -119709.21810931 143510.68287763 46565.89726567 -18993.19432337 -76.23415246 -136316.88587252 -32977.51391875 143510.68287763
1.1100000000000008 47403.94827971 16918.73616381 -72.30611895 -63337.49015966 -103428.94265137 123411.97047620 45483.00635414 -21556.30021306 -72.30611895 -117921.67551497 -28348.93792451 123411.97047620
1.1400000000000008 50423.82055531 14864.51926742 -68.51207232 -55582.74473829 -90437.33152184 107079.21510302 46165.82782106 -25144.22307492 -68.51207232 -103251.78611292 -24645.91467010 107079.21510302
1.1700000000000008 54908.59899775 13504.45996966 -65.84734507 -50448.20330549 -81822.54123878 95885.16802921 48375.33791757 -29277.14747595 -65.84734507 -93529.54041985 -22185.00710787 95885.16802921
1.2000000000000008 60230.20045806 12935.05598688 -65.13673567 -48296.48216844 -78204.75369223 90651.35909333 51735.64897947 -33442.71737277 -65.13673567 -89449.88170556 -21148.34160804 90651.35909333
1.2300000000000009 65727.66730248 13173.31759614 -66.92766305 -49191.33573629 -79696.39901373 91593.89939865 55791.42146411 -37161.53705821 -66.92766305 -91137.39125351 -21570.33710400 91593.89939865
1.260000000000001 70786.06413413 14159.03444310 -71.43188103 -52905.88255378 -85913.59345366 98330.60925724 60065.25523252 -40041.35669297 -71.43188103 -98160.19284563 -23339.97620875 98330.60925724
1.290000000000001 74898.91429941 15764.06661362 -78.52493251 -58957.74895301 -96035.11805088 109944.58666910 64108.40860619 -41814.65180305 -78.52493251 -109596.50729400 -26217.65911766 109944.58666910
1.320000000000001 77711.17673896 17807.66159024 -87.80326443 -66666.43026150 -108900.83055447 125095.56503462 67542.01831363 -42358.18177857 -87.80326443 -124144.80067732 -29864.23084650 125095.56503462
1.350000000000001 79041.02331511 20075.94789491 -98.68190244 -75226.43267004 -123138.30961914 142165.98247874 70086.28247327 -41694.60468280 -98.68190244 -140265.05442100 -33878.81309008 142165.98247874
1.380000000000001 78881.52475312 22343.61333039 -110.50381589 -83788.63500686 -137304.48342976 159426.38658639 71576.98156540 -39978.34056113 -110.50381589 -156336.44332022 -37841.41932079 159426.38658639
1.410000000000001 77384.77041964 24395.68163311 -122.64047993 -91542.07375514 -150028.30625218 175204.09816195 71969.64783873 -37468.94400985 -122.64047993 -170816.05383698 -41356.01160471 175204.09816195
1.440000000000001 74832.08589848 26047.35870436 -134.56467275 -97788.64907660 -160140.87557569 188039.55867009 71332.53936100 -34496.01141731 -134.56467275 -182383.71594985 -44089.68217959 188039.55867009
1.470000000000001 71594.80091783 27160.26756071 -145.88446041 -102004.20482335 -166780.84232404 196816.40973415 69830.37859771 -31419.95985568 -145.88446041 -190059.72951947 -45803.99963920 196816.40973415
1.500000000000001 68089.56800091 27653.52123145 -156.34135568 -103880.77823749 -169465.52368944 200854.04776610 67700.58764795 -28592.60287506 -156.34135568 -193285.02370479 -46375.41825147 200854.04776610
1.5300000000000011 64733.13482750 27509.01100069 -165.78366611 -103346.79087738 -168121.62244878 199955.13615944 65225.04682631 -26321.43038167 -165.78366611 -191957.15594087 -45802.72265435 199955.13615944
1.5600000000000012 61899.66873474 26770.40516120 -174.12426173 -100563.92762272 -163073.75287162 194404.92440524 62699.21054013 -24840.14049094 -174.12426173 -186419.99165384 -44201.12132428 194404.92440524
1.5900000000000012 59885.11652355 25536.23615819 -181.32124435 -95901.78547462 -154993.37502789 184923.85156368 60402.01773938 -24288.32623251 -181.32124435 -177409.66935821 -41784.06368421 184923.85156368
1.6200000000000012 58880.77711023 23948.13952557 -187.35839626 -89893.53521235 -144815.15998133 172579.60908985 58568.88863151 -24701.10492085 -187.35839626 -165964.10997490 -38835.45330793 172579.60908985
1.6500000000000012 58958.61968592 22175.26622592 -192.25991667 -83177.45873982 -133630.85326431 158668.60590967 57370.32091228 -26009.75866634 -192.25991667 -153306.62763573 -35675.93740215 158668.60590967
1.6800000000000013 60069.28029520 20396.73216674 -196.11287281 -76430.67525094 -122572.95488536 144579.81942969 56898.06306688 -28052.72780859 -196.11287281 -140716.81635012 -32627.51882890 144579.81942969
1.7100000000000013 62052.76967680 18783.87058638 -199.09385567 -70301.87864201 -112700.81754777 131655.33066177 57160.13649843 -30595.73196131 -199.09385567 -129402.44745121 -29980.57721538 131655.33066177
1.7400000000000013 64660.64705809 17484.04125560 -201.48521448 -65349.81867094 -104900.75428143 121061.66031212 58085.06614507 -33358.89787631 -201.48521448 -120385.33463551 -27966.73477245 121061.66031212
1.7700000000000014 67587.13283157 16607.46074187 -203.67323515 -61993.34696679 -99809.40825723 113684.24700797 59534.56805503 -36048.07183729 -203.67323515 -114411.82543358 -26739.99337623 113684.24700797
1.8000000000000014 70506.17323142 16218.33893249 -206.12195599 -60477.41587354 -97766.45849222 110054.45513814 61323.49064619 -38387.29576870 -206.12195599 -111895.31664526 -26367.33489962 110054.45513814
1.8300000000000014 73109.83219925 16330.79017369 -209.32552978 -60857.53141087 -98799.27919209 110314.62148055 63244.07059345 -40148.84564555 -209.32552978 -112894.41343998 -26828.86714617 110314.62148055
1.8600000000000014 75144.31466694 16909.91004611 -213.74480839 -63003.36549873 -102638.71955004 114222.65140974 65092.16653147 -41177.94240575 -213.74480839 -117126.64158787 -28026.42762441 114222.65140974
1.8900000000000015 76438.17951725 17877.45248145 -219.73402645 -66620.19015603 -108762.30285837 121194.21967055 66691.22295818 -41408.68719823 -219.73402645 -124014.15011189 -29798.97366535 121194.21967055
1.9200000000000015 76919.68383320 19121.38970056 -227.48391263 -71285.22391736 -116458.69674358 130375.38480723 67911.29436816 -40869.56572220 -227.48391263 -132754.99942591 -31942.46896517 130375.38480723
1.9500000000000015 76620.38186062 20508.35623809 -236.98273663 -76494.47878920 -124905.99897327 140738.42986982 68680.38935769 -39677.19382381 -236.98273663 -142411.64356005 -34232.11420971 140738.42986982
1.9800000000000015 75664.50157764 21897.53966143 -248.00733505 -81715.33276220 -133255.64618946 151189.81527340 68986.78094654 -38018.98337475 -248.00733505 -152007.43697503 -36444.50512889 151189.81527340
2.0100000000000016 74245.76513313 23154.64449479 -260.14420588 -86439.43225529 -140713.88496130 160679.46973267 68872.49013825 -36126.87786179 -260.14420588 -160621.65097287 -38377.83355361 160679.46973267
2.0400000000000014 72595.58802644 24164.58273870 -272.83985398 -90230.81008676 -146613.52596783 168300.95148155 68419.77289680 -34245.89225864 -272.83985398 -167474.23610983 -39868.60074122 168300.95148155
2.070000000000001 70948.28476639 24841.77166499 -285.47028113 -92764.81028853 -150470.04528013 173373.15691888 67733.79847287 -32602.22807087 -285.47028113 -171993.01579353 -40803.76297252 173373.15691888
2.100000000000001 69509.00866497 25137.02733858 -297.42024701 -93854.42901823 -152017.83806032 175496.38533245 66924.85387054 -31375.72889058 -297.42024701 -173857.94735695 -41127.74095059 175496.38533245
2.130000000000001 68430.08541041 25040.69655223 -308.15781840 -93462.11654671 -151224.35441371 174578.32919755 66093.82376859 -30680.93109316 -308.15781840 -173019.46288072 -40844.07009227 174578.32919755
2.1600000000000006 67798.43751858 24581.67311068 -317.29563007 -91696.43432985 -148281.91898877 170828.65390928 65322.60267271 -30558.86717376 -317.29563007 -169690.32096958 -40011.97991905 170828.65390928
2.1900000000000004 67635.62864177 23822.75598870 -324.63215314 -88794.59227721 -143578.94394844 164723.93459953 64670.84396857 -30980.37935625 -324.63215314 -164312.90323346 -38738.38656963 164723.93459953
2.22 67908.10384908 22852.94260221 -330.16352846 -85093.18491263 -137654.03615056 156947.87917519 64177.75141330 -31858.81004512 -330.16352846 -157506.07050425 -37166.13433528 156947.87917519
2.25 68544.11243992 21777.42954492 -334.07474372 -80990.38321172 -131137.90514554 148313.79621073 63866.97482471 -33069.03860865 -334.07474372 -149997.35117891 -35459.65281910 148313.79621073
2.28 69452.73604962 20706.55644295 -336.71339066 -76904.01228856 -124688.92559474 139677.98022449 63752.24710848 -34468.75415681 -336.71339066 -142547.73341660 -33789.03623721 139677.98022449
2.3099999999999996 70540.61061455 19744.74095994 -338.54993993 -73229.65040223 -118928.66206287 131853.25104840 63841.38434013 -35918.10388904 -338.54993993 -135876.44580544 -32314.08103876 131853.25104840
2.3399999999999994 71723.50663820 18980.56637498 -340.12817921 -70302.95890923 -114383.51860930 125531.48492674 64137.46510886 -37294.89071984 -340.12817921 -130593.06064681 -31169.66268242 125531.48492674
2.369999999999999 72931.54040986 18478.88103733 -342.01095825 -68369.72552121 -111437.91063195 121221.58218425 64636.92887643 -38503.84469595 -342.01095825 -127143.19883303 -30453.80574520 121221.58218425
2.399999999999999 74108.91325988 18275.67243915 -344.72449031 -67566.19857432 -110303.09346448 119209.00459978 65325.76702490 -39480.06319996 -344.72449031 -125772.58256549 -30219.54818369 119209.00459978
2.429999999999999 75209.88422019 18375.93846927 -348.70960157 -67911.18917389 -111004.13527578 119539.51336402 66175.16984664 -40187.66844207 -348.70960157 -126512.23917655 -30471.31440995 119539.51336402
2.4599999999999986 76194.06821563 18754.78270187 -354.27946740 -69310.10275584 -113385.64094073 122027.23362966 67138.97634963 -40615.70829329 -354.27946740 -129185.39926176 -31166.11193499 122027.23362966
2.4899999999999984 77022.81366922 19361.32337978 -361.58596646 -71569.87190971 -117134.97606928 126284.97515035 68153.87690616 -40772.83079698 -361.58596646 -133434.47764872 -32219.39413670 126284.97515035
2.5199999999999982 77658.75158795 20124.90731556 -370.60575637 -74422.78974826 -121820.02508761 131772.59037327 69143.48829990 -40682.57143273 -370.60575637 -138764.62512958 -33514.90651794 131772.59037327
2.549999999999998 78068.73531844 20963.03353312 -381.13774255 -77556.47980642 -126937.14784513 137857.73392922 70026.03530784 -40379.82897682 -381.13774255 -144598.83082185 -34917.40522969 137857.73392922
2.579999999999998 78229.48911243 21790.00384570 -392.82269227 -80646.77057256 -131964.18245106 143882.43392548 70724.46172154 -39908.74275878 -392.82269227 -150338.64663753 -36286.88993223 143882.43392548
2.6099999999999977 78134.50809293 22525.50428896 -405.18085328 -83390.14013107 -136412.98417056 149228.74167063 71177.37734956 -39321.50368481 -405.18085328 -155424.27971967 -37492.81257812 149228.74167063
2.6399999999999975 77800.21884320 23102.24172375 -417.66545444 -85532.55016101 -139876.27747396 153377.10185755 71348.81410530 -38677.31053835 -417.66545444 -159388.11056000 -38426.81809794 153377.10185755
2.6699999999999973 77269.53349837 23471.93893103 -429.72685015 -86892.01525903 -142064.35904048 155952.14044257 71234.97830154 -38040.64393009 -429.72685015 -161896.60486307 -39012.73842181 155952.14044257
2.699999999999997 76611.48971751 23609.19189329 -440.87851704 -87372.97519232 -142828.38986299 156752.03105201 70866.72358213 -37478.28420998 -440.87851704 -162776.94626901 -39212.89976714 156752.03105201
2.729999999999997 75916.34760091 23512.86872029 -450.75797121 -86971.41795785 -142168.51906550 155759.36174383 70307.07310878 -37054.85527425 -450.75797121 -162026.40330987 -39030.24449506 155759.36174383
2.7599999999999967 75286.37492996 23204.99332314 -459.17008081 -85770.67649434 -140226.67248510 153133.37180149 69643.91438011 -36827.09810775 -459.17008081 -159804.25799354 -38506.20404133 153133.37180149
2.7899999999999965 74823.97618545 22727.40957946 -466.11153068 -83928.76673980 -137265.45166287 149185.18285353 68979.24638851 -36837.83552364 -466.11153068 -156407.93179179 -37714.73159511 149185.18285353
2.8199999999999963 74618.55300741 22136.66034069 -471.76367621 -81658.91991938 -133635.88664895 144339.34430748 68416.26747359 -37110.30219414 -471.76367621 -152236.41767871 -36753.26563998 144339.34430748
2.849999999999996 74734.38374953 21497.57423388 -476.46551859 -79205.59315744 -129737.87548725 139086.11202980 68046.27005693 -37644.10901725 -476.46551859 -147745.34356330 -35731.71950424 139086.11202980
2.879999999999996 75201.44133229 20876.38919298 -480.66367276 -76818.58500565 -125977.63558205 133929.64360121 67937.28548611 -38413.61275601 -480.66367276 -143398.58277657 -34760.69801926 133929.64360121
2.9099999999999957 76010.55047330 20334.06665803 -484.85078893 -74727.93700513 -122726.64161573 129337.53642249 68125.93210438 -39369.21925840 -484.85078893 -139621.47151915 -33940.20951833 129337.53642249
