# Level force for level 20
# start: 0.0, 0.0, 90.27770555555556
# center: 0.0, 0.0, 92.59251851851852
# end: 0.0, 0.0, 94.90733148148148
# as part of FluidModelPart.Drag_structure
# Time Fx Fy Fz Mx My Mz Fx' Fy' Fz' Mx' My' Mz'
0.03 14016.62552041 11576.62051642 -1.04572123 48593.22851686 67383.65276057 583890.85143737 18097.15782522 -1725.34408445 -1.04572123 82008.03921214 13286.83640410 583890.85143737
0.06 40015.19231327 33108.77662094 -2.89678717 138965.86437012 192694.12279259 1669710.89088080 51706.45430065 -4883.57336975 -2.89678717 234519.02597100 37991.61587187 1669710.89088080
0.09 75194.61148839 62195.32011988 -5.34505763 261011.46036184 361916.78231237 3135964.97342391 97149.35230697 -9191.88707729 -5.34505763 440476.78458755 71350.83740903 3135964.97342391
0.12 116150.72503920 95879.53297263 -8.08191872 402270.08711380 557775.86945192 4832865.53932549 149928.03325689 -14333.89737301 -8.08191872 678855.00613835 109959.19320500 4832865.53932549
0.15 159085.11958578 130919.32029193 -10.64725818 549099.24963707 761358.87904324 6596490.63361342 205064.10601173 -19916.22767822 -10.64725818 926633.82925088 150090.22332525 6596490.63361342
0.18 200032.00304419 164075.15055191 -12.44079151 687920.94053274 953845.22435747 8263848.43338296 257462.63738633 -25425.33422742 -12.44079151 1160903.98831650 188036.86437464 8263848.43338296
0.21 235138.66443224 192392.09092731 -12.80976167 806424.85642219 1118172.49286048 9687350.56809184 302309.89628055 -30226.39199783 -12.80976167 1360895.83673143 220438.86774439 9687350.56809184
0.24 261015.09233660 213454.85683805 -11.21355376 894625.77261435 1240499.33117247 10747442.45040323 335500.91853063 -33630.16503586 -11.21355376 1509761.43956929 244569.53868957 10747442.45040323
0.27 275127.08529346 225594.95503428 -7.42244250 945687.26547271 1311344.82858064 11362354.13997376 354063.95020531 -35024.50519288 -7.42244250 1595962.69906080 258558.94246577 11362354.13997376
0.30000000000000004 276162.36405770 228029.78256243 -1.66482230 956441.95878476 1326308.71893306 11494185.81362485 356517.68589610 -34034.87477132 -1.66482230 1614148.48397246 261535.29423636 11494185.81362485
0.33000000000000007 264281.61638701 220917.42720257 5.35918031 927562.41299947 1286310.70180678 11150845.76533022 343087.53394742 -30663.11223297 5.35918031 1565444.69216608 253673.34775472 11150845.76533022
0.3600000000000001 241171.01352672 205318.18515204 12.65114223 863368.86602452 1197328.99711796 10383724.79483550 315715.54011230 -25351.77806845 12.65114223 1457133.43300467 236145.47334212 10383724.79483550
0.3900000000000001 209852.01564240 183064.73311355 19.16964533 771296.80453786 1069666.89766146 9281385.46522325 277834.09748710 -18941.46912571 19.16964533 1301757.91774343 210979.51615096 9281385.46522325
0.42000000000000015 174274.29538061 156555.12109233 24.12730496 661081.38142006 916826.59236592 7959945.30706062 233931.72380400 -12529.34829626 24.12730496 1115749.42835239 180839.17291580 7959945.30706062
0.4500000000000002 138756.59047833 128493.43760904 27.12631008 543749.20070829 754109.33281934 6551149.45214513 188974.30713287 -7257.14499023 27.12631008 917724.57007821 148747.07590702 6551149.45214513
0.4800000000000002 107392.65362941 101609.38842806 28.16719239 430522.82224621 597092.27686353 5189373.90354479 147786.76122067 -4089.38604127 28.16719239 726633.60503018 117782.39089845 5189373.90354479
0.5100000000000002 83529.34207162 78389.35256135 27.54395869 331751.53252413 460140.22578769 3998877.47922097 114493.80697585 -3634.52143794 27.54395869 559952.03226802 90784.51563435 3998877.47922097
0.5400000000000003 69397.97842045 60847.35531787 25.69682894 255973.57414963 355100.74418999 3082555.54401499 92097.35870427 -6046.20357921 25.69682894 432094.79430689 70093.49413537 3082555.54401499
0.5700000000000003 65935.47500461 50356.87906053 23.07261306 209195.77244583 290303.29474931 2513235.18574024 82231.11215961 -11015.73083343 23.07261306 353199.17761003 57351.67902603 2513235.18574024
0.6000000000000003 72788.38212941 47555.20497089 20.05396181 194449.14880796 269943.40853742 2328233.82647314 85095.76651094 -17842.55067967 20.05396181 328375.12643149 53382.50299536 2328233.82647314
0.6300000000000003 88466.15790908 52323.45853443 16.93031936 211646.89180014 293887.92978960 2527522.88997878 99553.29250786 -25556.74781820 16.93031936 357467.10047204 58153.19565417 2527522.88997878
0.6600000000000004 110600.74651653 63838.48038558 13.92515010 257740.17259939 357893.57754576 3075461.60805975 123347.16024742 -33065.91548484 13.92515010 435318.79945494 70819.15179650 3075461.60805975
0.6900000000000004 136270.32041586 80686.47741511 11.21111854 327139.38304009 454193.51789192 3905728.53577241 153411.62297080 -39303.71231024 11.21111854 552485.79261319 89840.84033152 3905728.53577241
0.7200000000000004 162355.50837196 101025.01488977 8.92696419 412347.51694484 572377.26634551 4928818.87124888 186238.15403083 -43367.20783478 8.92696419 696305.57186706 113158.12099280 4928818.87124888
0.7500000000000004 185899.82119355 122776.54187607 7.15708808 504737.41433876 700469.64498016 6041293.68875862 218267.14951853 -44634.89885612 7.15708808 852210.08437831 138403.58758331 6041293.68875862
0.7800000000000005 204443.33800949 143834.66312498 5.89482416 595396.76477706 826103.60309435 7135876.27794419 246269.73634028 -42856.80500957 5.89482416 1005152.54958105 163134.36984026 7135876.27794419
0.8100000000000005 216292.96740593 162263.54446421 5.01104423 675962.86717067 937679.25422288 8111474.90375551 267679.87660570 -38204.57134569 5.01104423 1141017.28644563 185061.43203227 8111474.90375551
0.8400000000000005 220690.63164835 176471.71078456 4.25442211 739373.21465015 1025406.68414049 8882258.66929637 280836.18556624 -31267.49879954 4.25442211 1247887.83373657 202256.20592293 8882258.66929637
0.8700000000000006 217849.54272745 185344.41378183 3.30849219 780467.69660886 1082142.76578340 9385016.97133987 285101.18078115 -22984.59710079 3.30849219 1317064.48866658 213316.48712824 9385016.97133987
0.9000000000000006 208850.47682840 188323.66381090 1.87442380 796392.49917413 1103951.89307448 9584188.18534359 280844.52815799 -14514.64868082 1.87442380 1343746.40634882 217477.33304456 9584188.18534359
0.9300000000000006 195418.12893303 185431.19741794 -0.22463382 786774.86783985 1090346.51842123 9474154.70308404 269301.14127310 -7061.82699756 -0.22463382 1327325.26133550 214657.57270208 9474154.70308404
0.9600000000000006 179621.34521343 177235.25377439 -2.98848502 753658.88677490 1044194.01959383 9078648.85016772 252335.72105545 -1687.22143708 -2.98848502 1271273.98166927 205439.36258920 9078648.85016772
0.9900000000000007 163558.56059250 164768.94674584 -6.21999661 701215.24685793 971308.12096229 8447389.21896708 232162.60688901 855.87225688 -6.21999661 1182652.61507864 190984.50282936 8447389.21896708
1.0200000000000007 149082.05498604 149409.99422466 -9.58009626 635259.21365515 879774.40359081 7650337.41981210 211065.75212715 231.88805944 -9.58009626 1071290.54448020 172898.34890662 7650337.41981210
1.0500000000000007 137601.63389730 132735.70342316 -12.68122792 562629.55286649 779084.31421770 6770204.52973172 191157.36442721 -3440.73243505 -12.68122792 948734.97382726 153056.62957155 6770204.52973172
1.0800000000000007 129983.82898220 116367.40699743 -15.18041474 490493.19408907 679169.75661969 5894006.58701476 174196.62951488 -9628.26432092 -15.18041474 827076.60414883 133414.47681637 5894006.58701476
1.1100000000000008 126541.96213891 101818.72253741 -16.84977758 425648.41685645 589436.92656101 5104543.04216812 161475.38869103 -17481.97037513 -16.84977758 717773.72981356 115815.96589253 5104543.04216812
1.1400000000000008 127097.66375742 90361.19117504 -17.59324688 373894.35128353 517894.51846212 4472656.18762910 153766.63095181 -25976.60887987 -17.59324688 630589.95718384 101823.49470398 4472656.18762910
1.1700000000000008 131088.39886552 82918.51768071 -17.53777234 339524.47818480 470457.05181238 4050987.15394911 151325.74191067 -34061.24963473 -17.53777234 572743.43249686 92583.31069027 4050987.15394911
1.2000000000000008 137695.38482906 79997.61551230 -16.89974476 324987.75066334 450481.91086318 3869793.29170111 153932.19675823 -40798.48394322 -16.89974476 548339.85626984 88737.77167662 3869793.29170111
1.2300000000000009 145971.21981308 81660.93530493 -15.99649749 330742.85528832 458572.29132240 3935111.67853054 160960.24050005 -45474.23827575 -15.99649749 558130.09266170 90389.06105494 3935111.67853054
1.260000000000001 154954.89674070 87541.14974004 -15.22164583 355308.63531993 492650.73786822 4229316.73792297 171470.59887746 -47668.71764936 -15.22164583 599597.82295203 97115.53205431 4229316.73792297
1.290000000000001 163762.73370427 96894.04456576 -14.99467857 395494.19069470 548281.79555441 4713900.00136836 184312.17547698 -47283.30353890 -14.99467857 667350.39979777 108037.15147755 4713900.00136836
1.320000000000001 171653.66489545 108683.94059008 -15.68359032 446778.87582851 619199.98694275 5334085.35757718 198228.62186042 -44526.31906577 -15.68359032 753760.88246709 121920.13688860 5334085.35757718
1.350000000000001 178067.77547063 121692.14174513 -17.54078037 503799.00753462 697983.82670763 6024754.04451820 211962.27019118 -39863.59290099 -17.54078037 849788.79160628 137309.40244072 6024754.04451820
1.380000000000001 182641.64657090 134638.02460902 -20.66176814 560891.11908435 776806.81948639 6717067.90409562 224350.60702396 -33943.68661076 -20.66176814 945895.28354264 152675.45591892 6717067.90409562
1.410000000000001 185205.45225512 146301.45065241 -24.96505536 612639.70503076 848193.04122327 7345146.95909906 234410.77905606 -27509.28334857 -24.96505536 1032964.74105559 166561.36135284 7345146.95909906
1.440000000000001 185767.50873640 155635.36394161 -30.20744767 654379.03794917 905707.82203754 7852182.18740695 241408.28638719 -21306.64391609 -30.20744767 1103147.99793663 177716.28753625 7852182.18740695
1.470000000000001 184491.28618367 161858.45236056 -35.99686380 682603.35309473 944522.26911046 8195438.53437900 244906.24878681 -16003.83027379 -35.99686380 1150551.56130367 185204.64163575 8195438.53437900
1.500000000000001 181667.69005161 164519.53207992 -41.84907333 695251.21223608 961803.64080685 8349720.49805229 244791.33232934 -12125.57878664 -41.84907333 1171714.72338473 188481.02978413 8349720.49805229
1.5300000000000011 177684.47968867 163528.25059119 -47.26012949 691841.81119361 956900.78974628 8309028.77849271 241273.83540807 -10009.96559086 -47.26012949 1165837.07355574 187425.00114897 8309028.77849271
1.5600000000000012 172992.23943022 159149.44337934 -51.76097722 673453.46960578 931313.83413819 8086313.40104641 234859.63622935 -9788.33495816 -51.76097722 1134741.84270382 182334.81236011 8086313.40104641
1.5900000000000012 168067.72297197 151963.10793507 -54.99165820 642553.72898076 888458.15420836 7711410.09634678 226295.97072313 -11387.68250099 -54.99165820 1082588.88468022 173880.68660222 7711410.09634678
1.6200000000000012 163375.89912022 142794.52560164 -56.73323595 602701.57019097 833252.64598513 7227427.82757381 216495.18351959 -14553.22878112 -56.73323595 1015372.96373153 163024.22910390 7227427.82757381
1.6500000000000012 159332.40963163 132622.83962553 -56.96320766 558154.97816913 771578.92168522 6685998.32352207 206443.53655274 -18886.51807389 -56.96320766 940263.85776064 150913.51772780 6685998.32352207
1.6800000000000013 156270.01763878 122478.39942572 -55.84332934 513427.60059415 709669.65199061 6141898.46818577 197104.89595133 -23894.28238572 -55.84332934 864860.36135332 138764.08529639 6141898.46818577
1.7100000000000013 154412.33849317 113339.58632315 -53.68996154 472839.45160548 653489.54761704 5647603.02303838 189329.20171337 -29042.82158141 -53.68996154 796434.87319730 127738.90791177 5647603.02303838
1.7400000000000013 153857.91859702 106039.69948330 -50.93009800 440108.17224824 608170.33185637 5248312.09745714 183775.36815882 -33812.58699958 -50.93009800 741244.83882446 118837.89271976 5248312.09745714
1.7700000000000014 154577.02942353 101192.86379681 -48.00388658 418016.75138176 577553.13663969 4977917.12142932 180856.62591947 -37748.30552264 -48.00388658 703974.21896510 112809.25986187 4977917.12142932
1.8000000000000014 156422.33292504 99145.40627337 -45.32200128 408187.97060067 563878.34623216 4856260.26193640 180713.68143971 -40500.90324091 -45.32200128 687354.68439553 110089.72037451 4856260.26193640
1.8300000000000014 159152.02051356 99955.99681140 -43.28539949 410984.56502571 567645.51582049 4887889.73875632 183217.03611028 -41857.90977908 -43.28539949 691995.96643948 110776.02065412 4887889.73875632
1.8600000000000014 162463.27719902 103405.15243593 -42.20806383 425534.01609662 587648.61970189 5062351.60701058 187997.36949829 -41760.40050414 -42.20806383 716428.31235359 114632.33553866 5062351.60701058
1.8900000000000015 166030.16630118 109030.98457786 -42.28230540 449872.09904881 621174.32015722 5355914.59081019 194497.60502755 -40304.50791865 -42.28230540 757344.18598615 121128.96217807 5355914.59081019
1.9200000000000015 169540.57616501 116186.42454933 -43.56043867 481184.39404089 664335.68970495 5734490.91539205 202039.49977320 -37727.08241190 -43.56043867 810005.01920207 129507.52314716 5734490.91539205
1.9500000000000015 172726.03433502 124110.82669877 -45.97475622 516118.99032773 712502.85965765 6157412.03512182 209895.35734312 -34376.14298839 -45.97475622 868766.84163862 138864.36571884 6157412.03512182
1.9800000000000015 175380.37960001 132008.43856359 -49.33438878 551134.91886301 760784.47734024 6581662.40332953 217356.71778440 -30668.59362008 -49.33438878 927667.10142548 148244.62447202 6581662.40332953
2.0100000000000016 177366.09223831 139125.92390562 -53.34473886 582852.67050477 804511.78163313 6966145.39646794 223793.65080678 -27039.88234176 -53.34473886 981014.81208387 156736.66059065 6966145.39646794
2.0400000000000014 178610.12622479 144821.79987809 -57.63849116 608373.17116290 839679.00091448 7275571.97621868 228700.90819957 -23891.95468470 -57.63849116 1023927.51038782 163557.92074533 7275571.97621868
2.070000000000001 179093.59117439 148621.88266729 -61.80979748 625536.03035347 863299.90941319 7483614.99017371 231729.83385322 -21546.75171971 -61.80979748 1052765.98908325 168124.45120434 7483614.99017371
2.100000000000001 178840.21678807 150256.27987215 -65.45658732 633094.68679964 873649.89767525 7575054.14428512 232706.36445317 -20211.89562626 -65.45658732 1065429.31319830 170098.22085991 7575054.14428512
2.130000000000001 177908.27487941 149675.60838245 -68.21926209 630795.18363898 870374.98938088 7546745.06659247 231636.78526188 -19963.50993097 -68.21926209 1061487.60905732 169408.50527545 7546745.06659247
2.1600000000000006 176387.43738529 147045.55766399 -69.82240015 619354.80197742 854462.72412401 7407364.31661870 228701.66405882 -20747.84212369 -69.82240015 1042146.36693790 166246.40606053 7407364.31661870
2.1900000000000004 174400.44271269 142721.53067897 -70.10545602 600346.80080181 828083.43212615 7176006.50705200 224239.09784850 -22400.37351966 -70.10545602 1010052.70415523 161034.11633402 7176006.50705200
2.22 172106.32154560 137206.22697571 -69.04116918 576006.52328504 794322.90767280 6879820.33294677 218717.00056551 -24678.09353442 -69.04116918 968969.23308979 154372.99584471 6879820.33294677
2.25 169700.66871364 131094.81211275 -66.74343443 548981.27491795 756837.42672124 6550959.68468001 212694.52424261 -27298.46299601 -66.74343443 923353.25892929 146976.49445145 6550959.68468001
2.28 167409.12459140 125013.37568295 -63.45254381 522051.30888379 719468.65211202 6223185.07491178 206773.93291552 -29978.32154664 -63.45254381 877887.18339859 139595.14212051 6223185.07491178
2.3099999999999996 165471.77484663 119556.75971942 -59.50998412 497850.81010872 685858.36178264 5928469.79956895 201545.60962332 -32466.81855474 -59.50998412 837008.78239709 132941.41470290 5928469.79956895
2.3399999999999994 164118.86074849 115231.87537201 -55.31653617 478616.62783188 659101.18555479 5693949.14543983 197530.79984026 -34568.31887147 -55.31653617 804487.98092245 127621.85466532 5693949.14543983
2.369999999999999 163540.97109084 112411.82015239 -51.28521884 465988.26964435 641467.91732895 5539498.40099072 195128.08997544 -36153.76934489 -51.28521884 783089.77967582 124082.84883801 5539498.40099072
2.399999999999999 163859.15757466 111305.05227918 -47.78886311 460876.49352144 634223.32065112 5476148.14979547 194570.47872749 -37161.36423363 -47.78886311 774352.50467754 122574.71696057 5476148.14979547
2.429999999999999 165100.84486062 111941.99634564 -45.11899151 463410.05247783 637551.71673281 5505449.25673503 195898.87169614 -37588.98226502 -45.11899151 778497.53283598 123136.75168181 5505449.25673503
2.4599999999999986 167187.47882146 114180.04560378 -43.45363408 472961.96244764 650592.31277150 5619801.09671787 198956.88452676 -37481.91548151 -43.45363408 794472.84703859 125603.62525855 5619801.09671787
2.4899999999999984 169937.02335757 117725.39192777 -42.84349251 488248.67227020 671575.34074450 5803659.83324349 203408.04454076 -36919.19864082 -42.84349251 820119.42458568 129631.53045052 5803659.83324349
2.5199999999999982 173082.08557309 122169.04005999 -43.21434299 507488.71372361 698040.68243563 6035463.31902483 208774.07308811 -36000.95973317 -43.21434299 852438.01094392 134740.58924472 6035463.31902483
2.549999999999998 176301.80349244 127032.78143182 -44.38068925 528602.44167383 727113.56145252 6290048.31612405 214489.94196835 -34838.45960150 -44.38068925 887925.30105511 140368.55893644 6290048.31612405
2.579999999999998 179262.68245378 131820.01681904 -46.07760039 549431.27220796 755807.52935201 6541298.95989984 219968.68616563 -33547.03058789 -46.07760039 922943.20765085 145930.05090246 6541298.95989984
2.6099999999999977 181662.19336369 136066.14909837 -47.99464316 567953.99046736 781323.80203078 6764757.35569732 224667.86553008 -32241.27209529 -47.99464316 954083.47677985 150875.24065699 6764757.35569732
2.6399999999999975 183268.52357672 139383.43181601 -49.81388702 582478.99347190 801317.71356907 6939942.81807759 228149.38562130 -31031.44597699 -49.81388702 978492.03533228 154742.34296689 6939942.81807759
2.6699999999999973 183950.46994575 141495.99483372 -51.24468326 591794.69999388 814107.58205849 7052166.76809116 230125.40215876 -30019.84724343 -51.24468326 994123.03732487 157198.94645301 7052166.76809116
2.699999999999997 183693.20880245 142261.95868253 -52.05158240 595265.24066604 818807.99604024 7093688.98979456 230485.10929143 -29296.31791284 -52.05158240 999900.77476942 158068.59821023 7093688.98979456
2.729999999999997 182597.94829766 141681.01608224 -52.07511168 592864.44510279 815377.76303058 7064131.87845643 229299.85470918 -28932.64023487 -52.07511168 995777.61492423 157340.67601106 7064131.87845643
2.7599999999999967 180865.70202672 139887.19627813 -51.24474124 585147.69977864 804581.70908505 6970146.74379437 226806.54947660 -28976.17929771 -51.24474124 982687.08902189 155163.27600352 6970146.74379437
2.7899999999999965 178768.41097539 137128.62258942 -49.58047250 573167.36414004 787874.13142648 6824400.37194210 223372.93459039 -29443.77673490 -49.58047250 962401.67099136 151820.61111488 6824400.37194210
2.8199999999999963 176612.00906860 133736.72177551 -47.18626040 558342.97406511 767219.30560846 6644015.10507124 219449.69211250 -30317.40639027 -47.18626040 937314.07684228 147697.87046368 6644015.10507124
2.849999999999996 174696.73414161 130088.60161670 -44.23863993 542301.37606310 744870.08917537 6448644.12072235 215515.77772092 -31542.71300443 -44.23863993 910167.67161994 143237.71069792 6448644.12072235
2.879999999999996 173280.44659836 126566.84846833 -40.96440505 526704.41696572 723128.96037459 6258392.59038145 212024.05566210 -33031.50201137 -40.96440505 883765.65647062 138893.12663588 6258392.59038145
