# Level force for level 15
# start: 0.0, 0.0, 67.12957592592593
# center: 0.0, 0.0, 69.4443888888889
# end: 0.0, 0.0, 71.75920185185186
# as part of FluidModelPart.Drag_structure
# Time Fx Fy Fz Mx My Mz Fx' Fy' Fz' Mx' My' Mz'
0.03 -22623.62341483 34675.77893584 -0.57537924 11870.81622301 11235.95824046 -210500.83145811 8522.16089682 40516.79596010 -0.57537924 16338.95691447 -448.91238455 -210500.83145811
0.06 -64765.32935158 99163.00483850 -1.65698314 33946.70576051 32123.90166272 -602012.24664529 24322.82959386 115914.83673442 -1.65698314 46718.97454608 -1288.91713832 -602012.24664529
0.09 -121608.01763953 186249.80591189 -3.24467963 63766.71092887 60330.45377248 -1130703.19789456 45708.64683541 217688.35467454 -3.24467963 87749.94668635 -2429.80073719 -1130703.19789456
0.12 -187165.37879803 287045.94896443 -5.35362449 98300.24061973 92981.63908895 -1742529.36221926 70626.22847344 335318.04557631 -5.35362449 135256.71426012 -3760.81920884 -1742529.36221926
0.15 -254957.03586677 391819.26394086 -8.03960182 134224.21726313 126926.86542686 -2378357.48548201 96776.20955949 457339.90750472 -8.03960182 184661.70148430 -5160.00696813 -2378357.48548201
0.18 -318722.37718062 490885.70544730 -11.39730288 168219.09509691 159020.71043570 -2979415.19953732 121737.85688901 572479.36532964 -11.39730288 231393.48556627 -6504.24016991 -2979415.19953732
0.21 -373045.67595206 575466.85569029 -15.51477471 197258.97253669 186398.41636247 -3492518.72352502 143133.38884868 670699.64316472 -15.51477471 271286.74134292 -7679.57291825 -3492518.72352502
0.24 -413799.56031167 638442.16192194 -20.38758569 218873.66507748 206723.67091419 -3874619.82366879 158846.30694201 744047.25723879 -20.38758569 300942.76233464 -8591.34326423 -3874619.82366879
0.27 -438367.38662813 674934.07871833 -25.86046628 231359.81873314 218388.30489971 -4096302.09406388 167277.91217985 787223.01565140 -25.86046628 318019.94804671 -9172.24539387 -4096302.09406388
0.30000000000000004 -445664.49786279 682677.46594478 -31.58716321 233921.25368599 220644.31183263 -4143944.83155007 167593.47695993 797858.25410568 -31.58716321 321426.39387211 -9388.21561793 -4143944.83155007
0.33000000000000007 -436014.44317576 662141.84793513 -37.10485332 226721.20181905 213654.09962380 -4020400.91438893 159896.22131747 776513.76024718 -37.10485332 311392.36191731 -9239.83657272 -4020400.91438893
0.3600000000000001 -410954.46424574 616396.82225434 -41.94928650 210840.60829544 198451.16084234 -3744148.80168297 145269.68449084 726447.06134493 -41.94928650 289412.98544116 -8760.66230924 -3744148.80168297
0.3900000000000001 -373031.01183845 550735.93314049 -45.71986000 188145.83149961 176813.75966547 -3347023.50594729 125656.35490289 653201.87103059 -45.71986000 258065.40177190 -8012.98483881 -3347023.50594729
0.42000000000000015 -325600.74914552 472098.58423902 -48.19117118 161078.89668883 151066.13687850 -2870772.34486940 103589.61262377 564058.60798420 -48.19117118 220719.86994916 -7080.09036028 -2870772.34486940
0.4500000000000002 -272636.63974434 388352.16641162 -49.27936026 132396.59841630 123829.10832092 -2362780.70108818 81823.23359501 467389.66712128 -49.27936026 181178.93474820 -6058.13034419 -2362780.70108818
0.4800000000000002 -218500.43865733 307509.90550761 -49.04957122 104886.06849032 97750.28457983 -1871417.77918492 62939.19759964 371945.48133330 -49.04957122 143285.53937081 -5045.76119219 -1871417.77918492
0.5100000000000002 -167659.27569554 236965.86420320 -47.70841119 81090.77063566 75243.94371507 -1441462.71740241 49007.15871467 286113.18026096 -47.70841119 110545.33665226 -4134.33096397 -1441462.71740241
0.5400000000000003 -124345.12877795 182823.27052056 -45.58853221 63076.00518928 58267.92994780 -1110057.29105953 41350.29057739 217200.85811019 -45.58853221 85803.11939129 -3399.82260771 -1110057.29105953
0.5700000000000003 -92186.51235565 149378.47886228 -43.12139733 52255.74663042 48158.34245526 -903559.61348644 40440.82734623 170812.24338747 -43.12139733 71003.48331916 -2897.30227752 -903559.61348644
0.6000000000000003 -73864.49550190 138802.49440701 -40.78597241 49293.41112542 45534.33791887 -835564.22863328 45918.09938248 150378.27069912 -40.78597241 67053.34439387 -2658.06615533 -835564.22863328
0.6300000000000003 -70847.33752802 151039.01566146 -39.05685677 54079.94591645 50276.98604744 -906218.37514995 56704.07940288 156897.34499303 -39.05685677 73791.49425549 -2689.09871195 -906218.37514995
0.6600000000000004 -83243.79009703 183915.54592571 -38.34043267 65785.34500523 61578.59002793 -1102826.80827280 71185.68122042 188910.17815897 -38.34043267 90059.90214055 -2974.62497124 -1102826.80827280
0.6900000000000004 -109792.63680275 233443.91803697 -38.93731182 82973.80082658 78053.03923151 -1401612.08858470 87434.65946313 242704.89547827 -38.93731182 113863.17055811 -3479.50389248 -1401612.08858470
0.7200000000000004 -147980.11723650 294272.12884841 -41.00327038 103768.64554827 97893.72981827 -1770399.98939754 103444.07344421 312719.56220162 -41.00327038 142596.83313187 -4154.19275158 -1770399.98939754
0.7500000000000004 -194262.13749317 360238.77329988 -44.52879057 126049.84827904 119062.80229586 -2171937.66285780 117363.20469746 392091.35419588 -44.52879057 173320.81737612 -4940.58759517 -2171937.66285780
0.7800000000000005 -244365.45590709 424976.01596044 -49.33687336 147664.62535656 139493.72137159 -2567522.00668003 127710.95176762 473295.89368692 -49.33687336 203051.61424579 -5777.70161619 -2567522.00668003
0.8100000000000005 -293646.67468449 482505.86442340 -55.10240480 166630.90740446 157288.44225407 -2920609.28130989 133543.61375378 548822.72363835 -55.10240480 229045.56870108 -6606.12046084 -2920609.28130989
0.8400000000000005 -337492.74475549 527777.26439632 -61.39021426 181314.45942984 170890.85136228 -3200094.37818980 134551.47419286 611838.29102860 -61.39021426 249046.76363102 -7370.60394900 -3200094.37818980
0.8700000000000006 -371744.55561297 557097.98279560 -67.70052184 190563.77518075 179220.28933240 -3382984.83455991 131064.66527700 656790.85756322 -67.70052184 261476.81959197 -8021.05576566 -3382984.83455991
0.9000000000000006 -393113.17616696 568425.22615782 -73.52555612 193791.91290702 181753.12674482 -3456246.17966207 123964.33937225 679910.32465512 -73.52555612 265550.44417879 -8512.70733254 -3456246.17966207
0.9300000000000006 -399543.94253618 561492.15279103 -78.39514574 191000.81405817 178545.92079745 -3417665.80762837 114514.67767223 679555.13997091 -78.39514574 261309.00218176 -8806.93948361 -3417665.80762837
0.9600000000000006 -390475.11972149 537762.27662015 -81.93390370 182749.61968059 170200.24904652 -3275669.82882192 104147.74742473 656362.95750412 -81.93390370 249573.24559584 -8873.74507497 -3275669.82882192
0.9900000000000007 -366938.52771022 500221.64571249 -83.89228082 170073.91405715 157775.79271100 -3048128.37399925 94245.39655709 613174.83900209 -83.89228082 231824.75086578 -8696.08499972 -3048128.37399925
1.0200000000000007 -331473.24109749 453032.72429632 -84.18144532 154366.31598677 142663.36121398 -2760287.78855027 85955.53488742 554729.48801126 -84.18144532 210031.69896230 -8275.23867976 -2760287.78855027
1.0500000000000007 -287851.82728424 401088.71360912 -82.88606155 137231.20770958 126433.14095276 -2442058.07182452 80070.57020077 487154.52830002 -82.88606155 186438.84889627 -7635.38622745 -2442058.07182452
1.0800000000000007 -240652.99587082 349515.46595507 -80.25659932 120327.29237695 110674.73872669 -2124947.43755966 76977.39081329 417312.12139952 -80.25659932 163343.10266125 -6825.38614187 -2124947.43755966
1.1100000000000008 -194739.76336548 303172.16872040 -76.67815722 105213.49412838 96845.23321014 -1838964.81846531 76673.28912683 352076.90361162 -76.67815722 142877.09629899 -5917.25404203 -1838964.81846531
1.1400000000000008 -154715.27263686 266200.00125037 -72.61540252 93210.88134174 86139.25057318 -1609805.20327260 78831.60760136 297632.04447065 -72.61540252 126819.69448374 -5000.39807050 -1609805.20327260
1.1700000000000008 -124427.29804104 241660.74636000 -68.56932233 85291.08483340 79391.86874399 -1456585.26798466 82896.56628822 258863.33870730 -68.56932233 116448.43322041 -4171.37570051 -1456585.26798466
1.2000000000000008 -106579.81954344 231296.11459318 -65.00368154 82003.91557010 77020.83754316 -1390322.26615365 88187.73795413 238914.36422774 -65.00368154 112447.48130290 -3523.56826403 -1390322.26615365
1.2300000000000009 -102490.83496784 235424.52492550 -62.32781216 83444.30450216 79011.60841925 -1413265.98338771 93998.31361721 238942.24244768 -62.32781216 114873.67767058 -3134.38945917 -1413265.98338771
1.260000000000001 -112012.76185518 252978.21959700 -60.84520007 89263.17470913 84943.40492879 -1519095.89399907 99677.63108230 258087.59805677 -60.84520007 123182.65378929 -3054.53850484 -1519095.89399907
1.290000000000001 -133614.87275383 281669.03606510 -60.72349154 98718.60647478 94051.13588655 -1693924.73078023 104690.10286030 293650.06804352 -60.72349154 136308.79203128 -3300.40010392 -1693924.73078023
1.320000000000001 -164606.29255087 318261.15274129 -61.97637631 110759.66484475 105315.40028960 -1917966.88850430 108650.39360292 341438.84498031 -61.97637631 152788.14380183 -3849.67638552 -1917966.88850430
1.350000000000001 -201468.00227843 358919.78437235 -64.48431518 124136.57897697 117570.41273320 -2167681.03184724 111335.22282852 396254.00403489 -64.48431518 170912.65289846 -4642.98067737 -2167681.03184724
1.380000000000001 -240252.11772945 399600.00398107 -68.00439478 137524.45906785 129619.13493560 -2418166.65304483 112675.97093626 452443.77421811 -68.00439478 188899.04687039 -5589.90830139 -2418166.65304483
1.410000000000001 -277003.17052895 436438.09738667 -72.18892458 149649.63157042 140344.91628102 -2645579.21199023 112737.51793908 504479.15852147 -72.18892458 205057.11129288 -6579.42727815 -2645579.21199023
1.440000000000001 -308156.73509822 466109.22765796 -76.62423717 159408.61708661 148809.91450660 -2829340.53025679 111689.27859431 547488.71270683 -76.62423717 217943.41377691 -7494.41446611 -2829340.53025679
1.470000000000001 -330876.18550251 486119.66338504 -80.88622006 165967.70950081 154332.31398826 -2953949.48377558 109773.71594572 577703.30494965 -80.88622006 226486.31862333 -8227.46706871 -2953949.48377558
1.500000000000001 -343297.64182082 495008.37643807 -84.59617353 168834.03376921 156536.69081278 -3010237.86031848 107275.68922665 592771.87022035 -84.59617353 230071.84575151 -8695.53459506 -3010237.86031848
1.5300000000000011 -344664.25917949 492442.50860601 -87.45476468 167891.39639849 155374.25285821 -2995975.00783132 104495.00228137 591923.87207828 -87.45476468 228583.33271408 -8850.95707842 -2995975.00783132
1.5600000000000012 -335344.26858158 479200.61658380 -89.26584016 163397.96176842 151112.44278454 -2915783.96046183 101721.79918910 575970.21188126 -89.26584016 222392.43981312 -8687.17378389 -2915783.96046183
1.5900000000000012 -316737.59221472 457049.99542360 -89.94662625 155946.59285442 144295.91959825 -2780403.67067448 99215.85179358 547150.45041703 -89.94662625 212303.51655577 -8238.27006482 -2780403.67067448
1.6200000000000012 -291086.50838179 428533.05632023 -89.53402571 146393.00625448 135683.60156475 -2605390.35034666 97189.38609796 508847.87407531 -89.53402571 199458.28220308 -7572.69267858 -2605390.35034666
1.6500000000000012 -261214.47692919 396687.45329539 -88.17667241 135759.51599124 126168.43686033 -2409403.77813162 95793.86025606 465206.91621752 -88.17667241 185211.03164365 -6781.91709236 -2409403.77813162
1.6800000000000013 -230221.98252279 364730.05986494 -86.10632444 125126.44628878 116687.91766633 -2212264.97114986 95111.57361300 420694.62365315 -86.10632444 170988.57654097 -5966.94081217 -2212264.97114986
1.7100000000000013 -201171.13078624 335737.66487301 -83.61456488 115523.75112768 108133.86966858 -2032986.25599143 95152.90877352 379651.85028936 -83.61456488 158149.82032908 -5225.43529190 -2032986.25599143
1.7400000000000013 -176789.83888124 312355.83009521 -81.00971921 107830.34445639 101270.09273483 -1887973.77259541 95859.63168568 345878.21952127 -81.00971921 147856.33708698 -4638.79847861 -1887973.77259541
1.7700000000000014 -159223.16719567 296563.37891504 -78.59568199 102694.78171461 96665.63451426 -1789555.62313495 97114.19503636 322289.75752848 -78.59568199 140969.10221561 -4263.25087015 -1789555.62313495
1.8000000000000014 -149852.08393146 289513.10503805 -76.63075199 100483.53151765 94649.07129434 -1744979.06349421 98755.25509191 310678.10453765 -76.63075199 137979.58667894 -4125.58638846 -1744979.06349421
1.8300000000000014 -149193.54755161 291460.01441640 -75.31806094 101260.02655177 95287.63781138 -1755947.17498746 100597.58345554 311589.12182159 -75.31806094 138980.18629756 -4223.11657821 -1755947.17498746
1.8600000000000014 -156886.68465693 301780.08546978 -74.82655596 104795.78155897 98392.16613138 -1818716.48895052 102455.10626395 324326.38346153 -74.82655596 143675.57566723 -4528.03989296 -1818716.48895052
1.8900000000000015 -171764.04901316 319072.45302955 -75.27257181 110608.58886984 103546.44465652 -1924716.33217981 104162.77140576 347073.81904828 -75.27257181 151430.47643172 -4993.69006296 -1924716.33217981
1.9200000000000015 -191998.29300293 341331.50252689 -76.70053672 118022.78613111 110156.99099548 -2061604.51548920 105594.52511075 377121.11502797 -76.70053672 161347.46773585 -5561.95707982 -2061604.51548920
1.9500000000000015 -215309.05656748 366168.73286037 -79.05423851 126244.02465651 117517.69012590 -2214636.95383375 106673.90011431 411166.88801379 -79.05423851 172365.56151631 -6170.45032150 -2214636.95383375
1.9800000000000015 -239209.29937731 391060.89476548 -82.19977287 134442.32640262 124882.56579788 -2368207.87828473 107375.29283297 445668.32825813 -82.19977287 183370.38980544 -6759.77155013 -2368207.87828473
2.0100000000000016 -261265.58814404 413599.58320499 -85.92707298 141832.87098091 131539.10967562 -2507401.29851313 107716.40091284 477201.73904752 -85.92707298 193303.18130863 -7278.78842289 -2507401.29851313
2.0400000000000014 -279345.14106054 431718.44746404 -89.95861300 147748.03158698 136875.23818612 -2619406.44889326 107744.19822973 502797.88530058 -89.95861300 201259.04414005 -7688.22594419 -2619406.44889326
2.070000000000001 -291823.11534890 443877.35626810 -93.97247332 151694.61005845 140433.72365989 -2694666.16447189 107518.58486214 520218.79240253 -93.97247332 206565.92574897 -7962.64913459 -2694666.16447189
2.100000000000001 -297728.01009780 449187.46526795 -97.63791360 153391.81209110 141949.41092504 -2727656.99379385 107098.00782564 528148.99760430 -97.63791360 208837.78155864 -8090.99945758 -2727656.99379385
2.130000000000001 -296810.25867681 447467.69200118 -100.64388385 152787.64957375 141366.39921519 -2717240.05729644 106530.89273982 526283.98601203 -100.64388385 207998.32261214 -8076.04357817 -2717240.05729644
2.1600000000000006 -289529.29232427 439229.56651065 -102.73729406 150053.12149295 138834.27799034 -2666566.51132028 105854.07902267 515310.33093195 -102.73729406 204274.23917398 -7932.92031776 -2666566.51132028
2.1900000000000004 -276964.00159180 425595.23818735 -103.75526749 145555.78983962 134684.61417206 -2582565.47863056 105098.15529286 496784.40263310 -103.75526749 198159.89003912 -7687.08203401 -2582565.47863056
2.22 -260661.33346364 408159.18805071 -103.64514459 139816.02323532 129390.80378685 -2475083.12155141 104296.73318899 472927.52615952 -103.64514459 190357.97292909 -7371.74336737 -2475083.12155141
2.25 -242444.68998332 388809.73935460 -102.47729039 133450.44715376 123515.79013391 -2355774.03716900 103495.71893913 446364.28763889 -102.47729039 181702.56892211 -7024.86334750 -2355774.03716900
2.28 -224206.98718732 369529.90306418 -100.44327167 127108.33822529 117653.26327122 -2236867.37614371 102758.81927833 419835.38133745 -100.44327167 173072.58819226 -6685.74761665 -2236867.37614371
2.3099999999999996 -207712.87109032 352198.24606160 -97.84022302 121407.21978148 112368.38335337 -2129936.88312178 102166.58842447 395916.94779986 -97.84022302 165304.31425263 -6391.42253235 -2129936.88312178
2.3399999999999994 -194431.12191863 338409.61800764 -95.03430796 116874.07683619 108143.83988248 -2044797.70048283 101808.17092958 376775.30049432 -95.03430796 159111.69480024 -6173.20975133 -2044797.70048283
2.369999999999999 -185412.16016003 329332.51574001 -92.41477000 113897.73514199 105336.33604049 -1988632.58962269 101767.05938138 363979.45090859 -92.41477000 155021.89840026 -6053.82336112 -1988632.58962269
2.399999999999999 -181218.59604460 325615.52660339 -90.34169065 112696.60608958 104147.27141086 -1965422.04176821 102104.04878064 358385.84506112 -90.34169065 153331.77623935 -6045.29252595 -1965422.04176821
2.429999999999999 -181910.03873081 327349.45746061 -89.10234693 113304.58567455 104609.91457915 -1975718.11125548 102841.19923567 360100.84314059 -89.10234693 154088.82084827 -6148.06089174 -1975718.11125548
2.4599999999999986 -187077.16923905 334086.38855701 -88.87330314 115575.86736790 106593.62009668 -2016766.08973492 103951.21587667 368518.28582490 -88.87330314 157097.55115895 -6351.40795577 -2016766.08973492
2.4899999999999984 -195916.52578999 344910.46371845 -89.70233563 119207.42034166 109823.97554667 -2082943.46519515 105354.62386490 382422.43173013 -89.70233563 161949.65313726 -6635.09744543 -2082943.46519515
2.5199999999999982 -207334.75177529 358551.12901799 -91.51130057 123776.21176520 113916.29523142 -2166456.20672538 106926.12577477 400141.74368665 -91.51130057 168073.98353455 -6972.01384297 -2166456.20672538
2.549999999999998 -220069.79728919 373525.58669190 -94.11048642 128786.83443359 118418.56707211 -2258211.61630775 108509.62929899 419735.32129406 -94.11048642 174800.61575062 -7331.47216046 -2258211.61630775
2.579999999999998 -232817.16400830 388295.00459095 -97.22725868 133724.25174923 122859.18645295 -2348774.07274856 109939.43540023 439192.62629401 -97.22725868 181431.88909292 -7682.76134903 -2348774.07274856
2.6099999999999977 -244350.32457268 401418.61313641 -100.54427480 138106.09903715 126794.71397473 -2429306.69878739 111064.05195278 456627.59493373 -100.54427480 187313.16122253 -7998.35708225 -2429306.69878739
2.6399999999999975 -253625.90192296 411690.63663558 -103.74091439 141529.26698170 129852.82500428 -2492407.85361604 111768.64578174 470449.83605031 -103.74091439 191896.11753588 -8256.49130237 -2492407.85361604
2.6699999999999973 -259866.34528527 418247.42755974 -106.53141442 143706.30478455 131766.31942483 -2532765.90994199 111992.33728794 479498.84719470 -106.53141442 194788.56060971 -8442.84461513 -2532765.90994199
2.699999999999997 -262614.91654338 420635.65027890 -108.69535362 144488.42861601 132395.11167915 -2547576.88204382 111737.53239246 483131.10904959 -108.69535362 195786.22894165 -8551.26641309 -2547576.88204382
2.729999999999997 -261760.02829459 418836.60221047 -110.09768216 143873.42928634 131734.42921028 -2536694.66804756 111069.91058147 481254.49268284 -110.09768216 194884.18569126 -8583.56927061 -2536694.66804756
2.7599999999999967 -257528.66994454 413246.08729602 -110.69924384 141998.44480136 129908.89616481 -2502511.72662772 110108.84175809 474309.37949356 -110.69924384 192267.52465158 -8548.60182239 -2502511.72662772
2.7899999999999965 -250450.31574681 404614.31088095 -110.55404651 139119.07591993 127153.68744771 -2449594.54619106 109010.40637416 463200.63960392 -110.55404651 188283.27662254 -8460.80732824 -2449594.54619106
2.8199999999999963 -241295.26182275 393953.41095764 -109.79599669 135577.69706241 123785.31669660 -2384121.36556197 107945.61245667 449188.64426277 -109.79599669 183397.34581797 -8338.47212300 -2384121.36556197
2.849999999999996 -230993.55340440 382423.48973343 -108.61976942 131764.73192640 120165.44491870 -2313188.24343895 107077.13485290 433751.35089816 -108.61976942 178141.53643269 -8201.93450008 -2313188.24343895
