# Level force for level 37
# start: 0.0, 0.0, 168.9813462962963
# center: 0.0, 0.0, 171.29615925925924
# end: 0.0, 0.0, 173.61097222222222
# as part of FluidModelPart.Drag_structure
# Time Fx Fy Fz Mx My Mz Fx' Fy' Fz' Mx' My' Mz'
0.03 -5901.76766934 -10612.33768847 -1.46953401 -16787.46426700 1886.61987409 -769974.17083299 -11677.23588373 -3330.87600378 -1.46953401 -10536.48811563 13204.57152862 -769974.17083299
0.06 -16930.88747552 -30346.92787053 -4.11785292 -48006.69822887 5371.72848669 -2201868.81769704 -33430.46383088 -9486.57313998 -4.11785292 -30147.47622038 37744.24749964 -2201868.81769704
0.09 -31756.62623828 -56996.62211096 -7.74755079 -90166.54590209 10080.73386062 -4135439.97266500 -62758.02376008 -17847.37223869 -7.74755079 -56629.22077136 70885.53131572 -4135439.97266500
0.12 -48697.65792540 -87841.72976585 -12.09324664 -138963.35750294 15548.71187572 -6373125.42934469 -96547.92693554 -27679.03864164 -12.09324664 -87267.33282074 109256.53203282 -6373125.42934469
0.15 -65975.60128664 -119905.52183978 -16.83644085 -189686.22160245 21256.87169510 -8698742.66408933 -131437.80265726 -38134.21253198 -16.83644085 -119097.53547033 149159.29171516 -8698742.66408933
0.18 -81980.62679860 -150226.12904475 -21.62429673 -237647.70979287 26671.78925909 -10897379.28280503 -164194.97169417 -48256.85742374 -21.62429673 -149182.50407651 186902.11017947 -10897379.28280503
0.21 -95474.82233561 -176118.65451571 -26.10033484 -278598.60289805 31288.05600251 -12774490.81072567 -192045.58920760 -57023.80059542 -26.10033484 -174874.96476879 219122.95790783 -12774490.81072567
0.24 -105682.85307545 -195405.31424673 -29.94683604 -309091.53865170 34673.90307350 -14172544.44535027 -212901.48484855 -63443.36071895 -29.94683604 -194042.57099452 243078.87498147 -14172544.44535027
0.27 -112260.32187934 -206594.57707374 -32.93911604 -326763.70763569 36516.58910205 -14983837.50378593 -225464.46126427 -66704.39154615 -32.93911604 -205235.70573499 256877.96129471 -14983837.50378593
0.30000000000000004 -115173.80150630 -208994.24207139 -34.96977936 -330515.63041473 36660.99682460 -15158468.57162254 -229221.42185776 -66341.06973748 -34.96977936 -207786.60409467 259633.08301413 -15158468.57162254
0.33000000000000007 -114550.98286901 -202748.63650612 -36.05694166 -320570.76318428 35133.55037518 -14706845.54893345 -224364.71252806 -62365.15897155 -36.05694166 -201834.58878030 251520.93221520 -14706845.54893345
0.3600000000000001 -110565.22480372 -188796.98688695 -36.32521194 -298411.67617069 32144.30351685 -13696599.87328019 -211681.04991747 -55318.20947322 -36.32521194 -188279.46481225 233738.37479882 -13696599.87328019
0.3900000000000001 -103398.17678251 -168757.61239656 -35.92208746 -266599.54728754 28063.46462439 -12244292.77969306 -192443.20406769 -46216.10013722 -35.92208746 -168670.48160879 208358.21388777 -12244292.77969306
0.42000000000000015 -93282.03762082 -144750.45212968 -35.00559724 -228495.65419713 23375.31124672 -10502771.02462107 -168314.38764530 -36393.66491613 -35.00559724 -145041.98545954 178099.66764934 -10502771.02462107
0.4500000000000002 -80597.94087255 -119177.23382233 -33.69085734 -187913.98400270 18615.61865621 -8645508.78723747 -141262.38073947 -27279.67965817 -33.69085734 -119712.02218030 146038.48255588 -8645508.78723747
0.4800000000000002 -65974.53867038 -94482.69958169 -32.06380613 -148741.48203370 14304.25432603 -6849522.86988859 -113460.40125850 -20158.31389955 -32.06380613 -95061.47535601 115290.74582352 -6849522.86988859
0.5100000000000002 -50338.65021681 -72921.78851509 -30.21953223 -114565.73690942 10883.60857608 -5278599.38141074 -87158.29207936 -15968.69023119 -30.21953223 -73314.33603236 88706.08288821 -5278599.38141074
0.5400000000000003 -34888.09526589 -56355.76155617 -28.30745155 -88347.66137434 8671.70898713 -4068476.66093133 -64519.14990049 -15179.93241010 -28.30745155 -56339.40623050 68603.05468905 -4068476.66093133
0.5700000000000003 -20986.22329283 -46095.84549488 -26.56729477 -72169.96469549 7834.88768659 -3315357.66357482 -47434.18573582 -17755.18413210 -26.56729477 -45491.76922116 56571.97364720 -3315357.66357482
0.6000000000000003 -10002.43400492 -42806.77630942 -25.32146186 -67082.22728891 8380.82477557 -3068708.18973546 -37341.75072238 -23196.17289588 -25.32146186 -41508.15978235 53360.43584383 -3068708.18973546
0.6300000000000003 -3136.17614408 -46475.92101909 -24.94786568 -73051.77949674 10169.51297818 -3328802.19732233 -35081.05033296 -30645.82749602 -24.94786568 -44464.47707165 58846.34024813 -3328802.19732233
0.6600000000000004 -1257.30517967 -56446.83855849 -25.82062921 -89018.45773830 12938.44875745 -4048972.24938815 -40802.99133981 -39024.89330269 -25.82062921 -53796.69026309 72094.41997195 -4048972.24938815
0.6900000000000004 -4788.43464164 -71510.42814418 -28.25445328 -113041.45812637 16337.44726498 -5142079.29113940 -53951.44327267 -47179.57405993 -28.25445328 -68380.06184803 91484.70134472 -5142079.29113940
0.7200000000000004 -13635.86762524 -90042.11558280 -32.44789391 -142519.53436632 19969.81051696 -6490363.96962828 -73311.40498615 -54027.37605581 -32.44789391 -86655.74076643 114897.31763753 -6490363.96962828
0.7500000000000004 -27169.23248500 -110170.19924190 -38.44186171 -174460.67763259 23436.16464095 -7957608.85174252 -97113.64349839 -58690.54643884 -38.44186171 -106790.45726178 139934.19914703 -7957608.85174252
0.7800000000000005 -44247.50763263 -129958.78620589 -46.09585222 -205775.19332070 26377.59106452 -9402420.81402667 -123182.45169859 -60607.02630332 -46.09585222 -126853.26108395 164156.80811012 -9402420.81402667
0.8100000000000005 -63293.00043596 -147588.35033088 -55.08345491 -233565.51797089 28513.95920822 -10691423.31436303 -149115.63315301 -59605.81353319 -55.08345491 -144993.34769396 185318.17552317 -10691423.31436303
0.8400000000000005 -82418.16297679 -161517.98382783 -64.90962348 -255387.36565721 29672.91995821 -11711214.18165172 -172488.90358206 -55932.01971441 -64.90962348 -159604.21516553 201568.06100563 -11711214.18165172
0.8700000000000006 -99606.71144108 -170615.64049655 -74.94179992 -269459.70012875 29805.34769684 -12378082.48119227 -191076.05748328 -50210.89525992 -74.94179992 -169461.21774548 211612.34468959 -12378082.48119227
0.9000000000000006 -112939.85738182 -174246.03744411 -84.47690135 -274805.59205382 28984.50473126 -12644680.80490962 -203071.09369254 -43350.01565068 -84.47690135 -173821.75780443 214812.03749405 -12644680.80490962
0.9300000000000006 -120840.68001094 -172309.73289277 -92.81779567 -271312.45992438 27388.93907077 -12503114.15300974 -207288.64487185 -36394.11631399 -92.81779567 -172479.97568648 211213.78477938 -12503114.15300974
0.9600000000000006 -122299.91303723 -165231.37139576 -99.36645329 -259707.74356726 25271.80736835 -11984230.56960812 -203315.32102585 -30357.12533154 -99.36645329 -165771.24024006 201510.97296607 -11984230.56960812
0.9900000000000007 -117035.49425503 -153899.81057844 -103.71545308 -241455.00780406 22922.48653204 -11153252.52024600 -191580.19131059 -26067.00805609 -103.71545308 -154525.82770124 186943.11903816 -11153252.52024600
1.0200000000000007 -105555.41197239 -139566.60557154 -105.71187530 -218582.79694885 20626.84506471 -10102253.98093632 -173327.44082343 -24049.54563021 -105.71187530 -139975.99595352 169146.75999300 -10102253.98093632
1.0500000000000007 -89105.90644258 -123713.83845253 -105.48917516 -193465.98765207 18632.57319413 -8940303.33325641 -150486.28478572 -24471.50340708 -105.48917516 -123625.89294121 149976.33065426 -8940303.33325641
1.0800000000000007 -69513.35892766 -107904.66118520 -103.45239135 -168583.17023560 17124.16925830 -7782322.71370546 -125453.48512649 -27146.75016489 -103.45239135 -107097.68666279 131314.91907225 -7782322.71370546
1.1100000000000008 -48947.41397509 -93631.60218125 -100.22224201 -146275.17608377 16209.65942995 -6737822.32705768 -100818.58917905 -31596.49249239 -100.22224201 -91970.20882445 114894.12903173 -6737822.32705768
1.1400000000000008 -29645.20213679 -82177.51664295 -96.54612476 -128528.40539493 15918.82223232 -5900639.37310921 -79070.60273987 -37145.95581873 -96.54612476 -79626.99988087 102139.61417882 -5900639.37310921
1.1700000000000008 -13639.51997820 -74502.43329124 -93.21119159 -116803.09048192 16210.99149802 -5340657.74728001 -62325.77286385 -43036.57872642 -93.21119159 -71129.35532530 94055.15936132 -5340657.74728001
1.2000000000000008 -2527.07175804 -71166.12385989 -90.94938490 -111920.59239601 16989.68363274 -5098228.98246359 -52108.95834874 -48535.13919543 -90.94938490 -67126.28933071 91153.33034455 -5098228.98246359
1.2300000000000009 2695.36625778 -72292.36883362 -90.34929462 -114016.49188548 18121.15765180 -5181697.33415761 -49212.51247163 -53024.33598895 -90.34929462 -67808.24112079 93435.42803786 -5181697.33415761
1.260000000000001 1715.10877586 -77576.25359423 -91.80224032 -122561.40799511 19454.36889030 -5568098.28825806 -53641.92992965 -56067.46002141 -91.80224032 -72907.68653908 100420.31887115 -5568098.28825806
1.290000000000001 -5098.05068773 -86331.82478428 -95.49379208 -136443.40910924 20839.57515830 -6206792.81298155 -64650.68494930 -57440.95252505 -95.49379208 -81744.25491787 111215.86474084 -6206792.81298155
1.320000000000001 -16768.65787300 -97573.64160833 -101.38996438 -154099.98964934 22144.08836137 -7025539.28188463 -80852.21533971 -57137.75195292 -101.38996438 -93306.91261831 124623.38270534 -7025539.28188463
1.350000000000001 -31854.35397270 -110123.06735977 -109.26680404 -173686.16156303 23263.67731521 -7938313.81745740 -100393.19739957 -55344.33799074 -109.26680404 -106364.75865456 139264.56662440 -7938313.81745740
1.380000000000001 -48626.11962768 -122728.38554245 -118.75023128 -193260.59724761 24128.77508306 -8854068.87835232 -121165.93259266 -52398.21472962 -118.75023128 -119594.25836699 153717.49933290 -8854068.87835232
1.410000000000001 -65267.36939621 -134187.01873933 -129.35988143 -210972.14591715 24705.40765388 -9685577.07280991 -141035.55038805 -48733.55140752 -129.35988143 -131710.47373545 166649.19630353 -9685577.07280991
1.440000000000001 -80069.04915643 -143458.37230033 -140.55545637 -225229.69777664 24991.57139415 -10357537.91712116 -158057.75549321 -44823.02024988 -140.55545637 -141589.73701715 176933.15622777 -10357537.91712116
1.470000000000001 -91599.86989012 -149756.90792235 -151.77204487 -234840.63569596 25010.46837874 -10813222.20458382 -170665.01427654 -41123.23596632 -151.77204487 -148372.33420752 183742.47779003 -10813222.20458382
1.500000000000001 -98836.61481839 -152617.23621971 -162.45894526 -239106.38114938 24802.26325261 -11019085.15141802 -177804.72322451 -38028.64208930 -162.45894526 -151535.89500101 186611.59207040 -11019085.15141802
1.5300000000000011 -101243.10914685 -151925.67826296 -172.10447205 -237867.67017925 24416.16268814 -10966983.27871080 -179017.36636225 -35837.98830996 -172.10447205 -150933.00840146 185462.67681613 -10966983.27871080
1.5600000000000012 -98795.70902664 -147916.36610932 -180.27800433 -231497.00658961 23904.16162268 -10673867.76658273 -174451.78132924 -34733.54971950 -180.27800433 -146790.30840193 180595.89796588 -10673867.76658273
1.5900000000000012 -91955.65369407 -141133.34425190 -186.65631346 -220840.68695641 23316.81339873 -10179068.70355198 -164818.81106757 -34773.87847654 -186.65631346 -139670.47043887 172645.42417867 -10179068.70355198
1.6200000000000012 -81595.66868134 -132363.88901050 -191.06948414 -207117.67586499 22701.60000007 -9539522.52650424 -151292.25414357 -35898.55286352 -191.06948414 -130401.85780390 162506.76841157 -9539522.52650424
1.6500000000000012 -68891.57373900 -122550.63956836 -193.52875572 -191786.33753871 22102.61891880 -8823488.45062441 -135370.08723499 -37942.68932008 -193.52875572 -119984.50809309 151242.33153202 -8823488.45062441
1.6800000000000013 -55191.26197177 -112692.43954446 -194.25126951 -176393.22440636 21560.92599602 -8103432.57464095 -118711.70379282 -40659.47258786 -194.25126951 -109482.96815265 139974.72211354 -8103432.57464095
1.7100000000000013 -41874.79447143 -103744.31671838 -193.65948814 -162419.50497466 21114.73270776 -7448819.84260810 -102968.26099267 -43748.35872959 -193.65948814 -99917.56268395 129778.30404514 -7448819.84260810
1.7400000000000013 -30219.05884953 -96526.74798758 -192.33704180 -151141.37236790 20798.27245929 -6919527.46345494 -89622.81950148 -46886.61663432 -192.33704180 -92166.48982626 121579.68881212 -6919527.46345494
1.7700000000000014 -21279.39137585 -91652.78627457 -190.98142363 -143515.52910900 20639.51824723 -6560500.64560709 -79855.10863077 -49761.50474800 -190.98142363 -86886.46052551 116075.14715159 -6560500.64560709
1.8000000000000014 -15797.02012363 -89479.08999624 -190.31475019 -140101.29119837 20657.05529615 -6398115.54770830 -74441.45136270 -52101.09125878 -190.31475019 -84459.82918011 113673.31693861 -6398115.54770830
1.8300000000000014 -14140.36581609 -90084.44063249 -190.99897984 -141025.05137060 20856.82520174 -6438517.84643929 -73698.06740764 -53700.57029361 -190.99897984 -84971.76760715 114467.77267551 -6438517.84643929
1.8600000000000014 -16282.70887523 -93276.12805112 -193.54405961 -145988.40521489 21229.73175444 -6667996.62894209 -77469.79652954 -54442.56880601 -193.54405961 -88217.70401573 118241.07858840 -6667996.62894209
1.8900000000000015 -21819.04034891 -98622.11852106 -198.24555041 -154316.94418928 21750.86973192 -7055255.76889504 -85164.76017092 -54307.97739153 -198.24555041 -93738.37020408 124498.74517237 -7055255.76889504
1.9200000000000015 -30019.32815809 -105504.36308630 -205.14476583 -165043.08654161 22380.62239750 -7555267.75860862 -95829.72109034 -53375.98007585 -205.14476583 -100877.59581708 132528.57554598 -7555267.75860862
1.9500000000000015 -39913.26538498 -113187.20081087 -214.02455794 -177013.42366722 23067.83255461 -8114265.52348393 -108258.37784991 -51812.49662387 -214.02455794 -108855.97140950 141478.81306278 -8114265.52348393
1.9800000000000015 -50398.44764956 -120893.56169045 -224.43828270 -189009.01837588 23754.63732809 -8675341.57992871 -121121.74136739 -49847.57317883 -224.43828270 -116852.49345968 150446.62373832 -8675341.57992871
2.0100000000000016 -60360.70104831 -127881.49899334 -235.77027354 -199866.47733656 24382.32465821 -9184093.36813217 -133107.33615492 -47744.41409806 -235.77027354 -124086.03434964 158567.84856346 -9184093.36813217
2.0400000000000014 -68793.16949895 -133513.85448019 -247.31610212 -208588.11025022 24897.48827013 -9593773.17447122 -143052.66853732 -45764.43523328 -247.31610212 -129888.88444249 165099.25002314 -9593773.17447122
2.070000000000001 -74900.00570282 -137314.76292795 -258.36542677 -214431.04934300 25257.72668160 -9869469.11217049 -150058.50196675 -44133.89808000 -258.36542677 -133765.73927347 169485.55890130 -9869469.11217049
2.100000000000001 -78172.80891478 -139008.24906484 -268.28723237 -216967.59446804 25436.18118529 -9990953.23533396 -153570.19884265 -43017.15226658 -268.28723237 -135433.16114248 171405.35354970 -9990953.23533396
2.130000000000001 -78430.15180905 -138535.82379402 -276.59072786 -216112.17157963 25424.42369686 -9953973.68851738 -153418.11263569 -42501.12824835 -276.59072786 -134836.59961710 170792.16442471 -9953973.68851738
2.1600000000000006 -75817.58703565 -136052.33768498 -282.97495643 -212113.66667402 25233.35258967 -9769927.21491230 -149814.66049944 -42592.40064723 -282.97495643 -132144.33735932 167829.68681577 -9769927.21491230
2.1900000000000004 -70769.24009940 -131901.13513928 -287.34385194 -205515.37671016 24891.93760191 -9464010.45241409 -143309.59667689 -43226.77752949 -287.34385194 -127720.05863468 162922.57438505 -9464010.45241409
2.22 -63938.74287201 -126571.88438573 -289.80327052 -197087.96716357 24444.12885549 -9072097.12331313 -134711.35642205 -44288.31909137 -289.80327052 -122077.62879772 156646.84734555 -9072097.12331313
2.25 -56111.21529313 -120645.81952369 -290.64034839 -187743.17441760 23944.14706923 -8636706.64354577 -124986.09794139 -45632.85627262 -290.64034839 -115823.40298979 149685.54051455 -8636706.64354577
2.28 -48108.55152731 -114734.41451778 -290.28242125 -178437.74037860 23450.74733334 -8202506.92488354 -115147.36555902 -47111.59952297 -290.28242125 -109592.35377802 142756.71870461 -8202506.92488354
2.3099999999999996 -40700.77364438 -109417.86937127 -289.25165259 -170077.46626025 23021.04911116 -7811821.81224066 -106149.91045889 -48590.32437194 -289.25165259 -103984.58978312 136541.26965618 -7811821.81224066
2.3399999999999994 -34533.02527475 -105189.56107584 -288.11006604 -163430.93443993 22704.62666428 -7500590.81643277 -98798.78829342 -49961.71560011 -288.11006604 -99508.52651951 131617.71747675 -7500590.81643277
2.369999999999999 -30074.66877931 -102411.77437404 -287.40767930 -159060.92382800 22538.44873076 -7295160.47059076 -93682.06236903 -51150.05789744 -287.40767930 -96535.96792563 128410.14779552 -7295160.47059076
2.399999999999999 -27592.31677022 -101286.52757180 -287.62785087 -157279.41941053 22543.19475261 -7210182.80526473 -91131.10478572 -52109.67619199 -287.62785087 -95272.89812709 127153.78988544 -7210182.80526473
2.429999999999999 -27146.26975496 -101843.74804144 -289.14658766 -158129.43953030 22721.30845690 -7247770.79463467 -91209.71628921 -52819.09343390 -289.14658766 -95748.00770980 127880.79028441 -7247770.79463467
2.4599999999999986 -28606.02433959 -103946.92412869 -292.19580897 -161394.12855467 23056.99363635 -7397927.91299529 -93729.08872820 -53274.06114157 -292.19580897 -97819.12619066 130426.63929874 -7397927.91299529
2.4899999999999984 -31680.72211287 -107314.95078780 -296.84858935 -166630.87768250 23518.22614934 -7640142.69796933 -98284.78286365 -53481.47598586 -296.84858935 -101195.92637268 134455.72075604 -7640142.69796933
2.5199999999999982 -35959.32864669 -111557.02505347 -303.01531593 -173225.88494566 24060.40529329 -7945931.61314408 -104309.81403730 -53455.64377132 -303.01531593 -105475.92218114 139502.47366310 -7945931.61314408
2.549999999999998 -40955.38362476 -116216.58542605 -310.45484224 -180462.88477922 24631.40200159 -8282033.34149684 -111137.36512827 -53217.70615394 -310.45484224 -110189.49819442 145023.56096533 -8282033.34149684
2.579999999999998 -46153.01021858 -120819.47493558 -318.80491670 -187598.59590344 25177.39381765 -8613910.27467418 -118067.37652408 -52797.16352861 -318.80491670 -114849.13340333 150455.34520546 -8613910.27467418
2.6099999999999977 -51050.75667652 -124921.40009618 -327.62069867 -193937.19729232 25648.84505938 -8909200.56056295 -124431.10535400 -52234.43289265 -327.62069867 -118997.83505862 155270.77960080 -8909200.56056295
2.6399999999999975 -55201.07482794 -128150.10138051 -336.42417826 -198896.56248797 26005.95050146 -9140786.27987502 -129648.86003553 -51582.75135627 -336.42417826 -122252.12413915 159030.09204072 -9140786.27987502
2.6699999999999973 -58243.50552211 -130238.36081474 -344.75630364 -202060.10563900 26222.91801940 -9289195.99606036 -133276.80581748 -50908.05038796 -344.75630364 -124335.66775059 161420.47405862 -9289195.99606036
2.699999999999997 -59929.90239436 -131045.03477854 -352.22386456 -203209.77184550 26290.57506645 -9344137.55618752 -135039.67311164 -50285.99235383 -352.22386456 -125100.76376454 162281.25158611 -9344137.55618752
2.729999999999997 -60140.47997621 -130562.61868281 -358.54235067 -202337.73718190 26216.99350699 -9305051.04292583 -134847.45425508 -49795.97182509 -358.54235067 -124536.17216014 161612.59994238 -9305051.04292583
2.7599999999999967 -58889.84252564 -128911.29702171 -363.56537510 -199636.62371208 26026.05113692 -9180673.60996309 -132795.45928849 -49512.64530271 -363.56537510 -122761.21315357 159567.60764643 -9180673.60996309
2.7899999999999965 -56321.97947191 -126320.56495570 -367.29497339 -195470.22104332 25754.07947747 -8987705.45558234 -129147.78169793 -49496.47446905 -367.29497339 -120007.43457803 156429.20306151 -8987705.45558234
