# Level force for level 23
# start: 0.0, 0.0, 104.16658333333334
# center: 0.0, 0.0, 106.4813962962963
# end: 0.0, 0.0, 108.79620925925926
# as part of FluidModelPart.Drag_structure
# Time Fx Fy Fz Mx My Mz Fx' Fy' Fz' Mx' My' Mz'
0.03 20189.56372797 4260.13970176 -1.08072117 39496.23115191 -26720.85570902 326196.85685486 17288.55109316 -11263.80374933 -1.08072117 9033.55460787 -46822.55114978 326196.85685486
0.06 57677.14982883 12183.02631884 -2.94595525 112954.22891968 -76411.64255919 932882.17963295 49398.60428890 -32169.20323805 -2.94595525 25839.51061760 -133901.89184801 932882.17963295
0.09 108371.38032840 22882.56810924 -5.40747330 212160.86596214 -143534.75086177 1752177.37860123 92810.55699776 -60449.71883575 -5.40747330 48525.99135396 -251514.78269452 1752177.37860123
0.12 167273.04961604 35267.18611425 -8.21657854 326991.25529820 -221269.62582048 2700389.68896030 143217.57414801 -93342.24123850 -8.21657854 74756.48112179 -387678.98689832 2700389.68896030
0.15 228842.18083361 48141.68817825 -11.06997419 446362.16152231 -302138.24224200 3685916.33024173 195857.17205757 -127774.54372035 -11.06997419 101981.71133241 -529269.71122262 3685916.33024173
0.18 287393.00823813 60315.78843395 -13.62671032 559246.19078301 -378671.17354068 4617658.35485627 245867.24800504 -160567.84197652 -13.62671032 127685.81920493 -663207.72850590 4617658.35485627
0.21 337531.78200354 70709.20410027 -15.53740583 655648.07507481 -444058.05852962 5413111.74941909 288669.96963229 -188672.05420908 -15.53740583 149616.73553048 -777609.66438414 5413111.74941909
0.24 374636.68328786 78444.62025056 -16.49099935 727459.92563602 -492733.16637985 6005438.58636174 320376.86216085 -209439.41630731 -16.49099935 165976.88319598 -862806.80972140 6005438.58636174
0.27 395343.29275392 82920.71525121 -16.28140991 769125.43349185 -520849.01160190 6348925.99609031 338183.72325788 -220916.12314795 -16.28140991 175557.94152711 -912149.67768315 6348925.99609031
0.30000000000000004 397960.38102379 83858.79948153 -14.87065762 778058.80806370 -526593.03626729 6422400.40914704 340697.60984106 -222103.35828995 -14.87065762 177813.15247355 -922528.16621398 6422400.40914704
0.33000000000000007 382728.07079044 81318.62046421 -12.44407175 754783.73558886 -510312.63273034 6230305.01448967 328130.56217334 -213128.66623939 -12.44407175 172867.17463541 -894558.22089298 6230305.01448967
0.3600000000000001 351839.19748498 75681.77200202 -9.39014093 702782.31153242 -474428.67376246 5801388.37089550 302302.97662371 -195272.78823402 -9.39014093 161470.40577576 -832413.87058930 5801388.37089550
0.3900000000000001 309186.12197896 67604.45770542 -6.21977741 628069.24043154 -423141.28580162 5185182.88363377 266431.17398204 -170824.03301815 -6.21977741 144905.94637350 -743318.09155414 5185182.88363377
0.42000000000000015 259864.95284874 57944.87882869 -3.41328379 538538.06742203 -361960.67544989 4446603.24120613 224725.48710687 -142779.05359727 -3.41328379 124859.07126774 -636748.76753470 4446603.24120613
0.4500000000000002 209509.54493334 47673.38330417 -1.30861511 443145.17007570 -297114.80644942 3659297.79606066 181855.79256215 -114435.44732919 -1.30861511 103259.06037928 -523442.84924191 3659297.79606066
0.4800000000000002 163579.33801768 37775.18199066 -0.04193735 351019.64739330 -234906.46935147 2898381.29905350 142379.14652046 -88956.97182816 -0.04193735 82104.41557849 -414312.33042453 2898381.29905350
0.5100000000000002 126716.84552019 29156.02138789 0.43525632 270591.11142614 -181092.56029300 2233308.65672477 110218.76119369 -68985.92032209 0.43525632 63285.03241261 -319388.58722384 2233308.65672477
0.5400000000000003 102265.87541969 22560.17116759 0.28959484 208822.87675993 -140351.76205953 1721585.76062194 88265.34401057 -56360.44397591 0.28959484 48416.38952006 -246903.75492760 1721585.76062194
0.5700000000000003 91997.42298913 18508.14157488 -0.28654823 170622.00971891 -115890.24925866 1403899.99153514 78139.23406206 -51964.76923254 -0.28654823 38701.19896772 -202594.76121612 1403899.99153514
0.6000000000000003 96046.04377931 17258.88395284 -1.12763162 158474.76874579 -109214.68748465 1301075.65117233 80118.68274125 -55710.93498372 -1.12763162 34832.13750155 -189285.02975268 1301075.65117233
0.6300000000000003 113029.47539119 18798.49087643 -2.13387894 172329.01036040 -120080.94033824 1413046.86601820 93216.44889787 -66631.36814827 -2.13387894 36944.96461658 -206765.05902544 1413046.86601820
0.6600000000000004 140311.26210323 22854.95031347 -3.25947724 209719.64940502 -146610.00347785 1719829.57971131 115375.93526038 -83054.15455970 -3.25947724 44625.25859338 -251963.11389133 1719829.57971131
0.6900000000000004 174362.18310259 28935.75531484 -4.50707649 266110.26619160 -185548.07968834 2184284.63597989 143753.35085621 -102832.01325245 -4.50707649 56966.06838367 -319370.67915120 2184284.63597989
0.7200000000000004 211183.42097134 36383.84887954 -5.89507212 335407.31042133 -232639.24819016 2756317.36953159 175056.49531140 -123601.96277462 -5.89507212 72667.99369306 -401669.57362387 2756317.36953159
0.7500000000000004 246755.03547504 44445.81167672 -7.44934161 410591.32686158 -283071.71762467 3378057.38397959 205910.09370828 -143054.22404438 -7.44934161 90169.98042568 -490493.84261473 3378057.38397959
0.7800000000000005 277469.99026517 52345.57353467 -9.20751363 484403.80201359 -331954.79098565 3989512.06823156 233214.82170373 -159187.00168080 -9.20751363 107797.72948304 -577252.69698967 3989512.06823156
0.8100000000000005 300508.47145254 59356.80073302 -11.23012373 550026.86364840 -374781.96674819 4534178.12104218 254463.17427596 -170519.98166024 -11.23012373 123916.85496647 -653938.59527463 4534178.12104218
0.8400000000000005 314106.00073693 64867.56318342 -13.60452385 601696.10987135 -407837.33276506 4964120.63707531 267974.77693851 -176238.18932643 -13.60452385 137078.85588439 -713847.94312280 4964120.63707531
0.8700000000000006 317678.26698627 68431.84847913 -16.41466862 635194.09703343 -428508.42113363 5244087.09923573 273021.08093031 -176243.83271286 -16.41466862 146148.84300287 -752151.26376113 5244087.09923573
0.9000000000000006 311787.36800280 69803.86134263 -19.70355858 648182.93567664 -435478.63572109 5354311.62929563 269825.74591146 -171108.17849471 -19.70355858 150404.65288611 -766264.44564660 5354311.62929563
0.9300000000000006 297963.08104283 68952.75990951 -23.40782066 640349.63759632 -428786.24242000 5291784.40666587 259448.67926217 -161934.75103508 -23.40782066 149597.91138002 -755993.23076939 5291784.40666587
0.9600000000000006 278417.46983806 66056.79738197 -27.33041416 613355.18460517 -409750.62795725 5069900.70823656 243580.09029555 -150161.67155103 -27.33041416 143970.16268623 -723445.05793426 5069900.70823656
0.9900000000000007 255711.56765863 61478.58729298 -31.12895291 570597.60375957 -380781.52472852 4716559.79180491 224287.30949190 -137343.45754663 -31.12895291 134220.23666109 -672726.63323328 4716559.79180491
1.0200000000000007 232428.36064846 55723.69679453 -34.37427973 516817.56285964 -345095.76712938 4270935.35476601 203754.27383079 -124949.06607840 -34.37427973 121425.64623840 -609464.76043032 4270935.35476601
1.0500000000000007 210897.90255669 49387.24196464 -36.64048610 457590.24330507 -306374.44211938 3779273.56258707 184049.39073315 -114205.28333856 -36.64048610 106925.71844096 -540204.60965068 3779273.56258707
1.0800000000000007 192999.41047874 43093.85475866 -37.60048775 398757.73203531 -268395.75077194 3290168.22136926 166943.14884184 -105999.23498720 -37.60048775 92179.84096025 -471748.75178523 3290168.22136926
1.1100000000000008 180046.86313860 37437.07679341 -37.11365865 345860.00333052 -234678.76781323 2849805.01013802 153784.36872509 -100840.34698825 -37.11365865 78617.00557497 -410502.90181745 2849805.01013802
1.1400000000000008 172750.49502896 32924.21044822 -35.26651952 303620.59795745 -208169.97675982 2497647.75445647 145433.97896146 -98872.11401516 -35.26651952 67493.78151731 -361890.58592994 2497647.75445647
1.1700000000000008 171239.24626228 29931.52223996 -32.38078646 275534.39966535 -190998.85788330 2262971.32926051 142249.21458445 -99919.64989022 -32.38078646 59775.65484537 -329888.83006170 2262971.32926051
1.2000000000000008 175127.89943700 28674.23553844 -28.95248262 263594.15082623 -184321.37714163 2162535.44431617 144109.87166142 -103558.37887229 -28.95248262 56054.31583585 -316724.10722483 2162535.44431617
1.2300000000000009 183612.62081056 29193.06656934 -25.55980912 268172.71309774 -188260.54570183 2199582.37727647 150476.34462139 -109191.11395177 -25.55980912 56506.43546496 -322747.05245625 2199582.37727647
1.260000000000001 195584.23556614 31358.39131778 -22.79497443 288063.52196871 -201944.79426956 2364172.69127140 160472.67040991 -116125.20811410 -22.79497443 60895.13634323 -346488.20324988 2364172.69127140
1.290000000000001 209746.59241366 34889.98275901 -21.20050949 320669.01463702 -223635.26207085 2634749.56857351 172984.18123085 -123642.29442210 -21.20050949 68613.22444352 -384881.24508898 2634749.56857351
1.320000000000001 224734.04559034 39390.38382452 -21.18366227 362309.89429477 -250926.39912880 2980720.21862078 186764.17511627 -131057.76008456 -21.18366227 78760.02474412 -433623.54154951 2980720.21862078
1.350000000000001 239220.58262291 44387.91829117 -22.95589143 408620.85673424 -280998.40805842 3365761.49982173 200541.49419850 -137767.49814562 -22.95589143 90242.69889031 -487634.45857176 3365761.49982173
1.380000000000001 252016.25388981 49384.78158464 -26.50443232 454992.79809227 -310896.80267025 3751508.88197101 213122.71604063 -143282.08814880 -26.50443232 101891.25550474 -541565.73033943 3751508.88197101
1.410000000000001 262147.45362848 53905.63183774 -31.57740191 497018.47209819 -337813.06103435 4101271.00426252 223483.27994810 -147249.20431487 -31.57740191 112575.22576483 -590315.03822638 4101271.00426252
1.440000000000001 268918.56364290 57542.04339398 -37.73062925 530899.31051773 -359341.24219430 4383426.10129314 230842.50902606 -149465.77085163 -37.73062925 121309.87347876 -629495.13170993 4383426.10129314
1.470000000000001 271952.74052553 59988.77796088 -44.36604223 553779.58419771 -373688.27717997 4574202.21855815 234718.09867911 -149881.15529664 -44.36604223 127343.78442499 -655818.81411274 4574202.21855815
1.500000000000001 271209.13027767 61068.57772429 -50.82549159 563978.28643289 -379819.49156218 4659601.03492606 234955.82056530 -148591.80971278 -50.82549159 130219.93266823 -667365.80888911 4659601.03492606
1.5300000000000011 266974.99759884 60743.66935063 -56.46799177 561100.37947650 -377527.57016219 4636316.52064746 231732.09172139 -145827.57069742 -56.46799177 129805.57830761 -663710.18820075 4636316.52064746
1.5600000000000012 259830.81419099 59113.02528813 -60.76600963 546020.88213817 -367419.79581538 4511595.43623019 225527.35171336 -141928.90963798 -60.76600963 126290.03926613 -645900.09759259 4511595.43623019
1.5900000000000012 250590.48479942 56396.67222828 -63.37112153 520747.08977735 -350827.01569080 4302087.52089530 217072.70047147 -137315.76173352 -63.37112153 120151.63664632 -616295.96028312 4302087.52089530
1.6200000000000012 240221.19559566 52908.76527037 -64.16771453 488175.61754550 -329645.32789509 4031833.20614976 207274.18309732 -132449.88968354 -64.16771453 112097.84283528 -578286.73631744 4031833.20614976
1.6500000000000012 229749.41269240 49022.79549324 -63.25959077 451773.98133334 -306128.19166716 3729618.77504297 197121.71881442 -127793.01656243 -63.25959077 102987.12552423 -535917.76600467 3729618.77504297
1.6800000000000013 220162.93524253 45132.56909993 -60.93553583 415219.89016783 -282651.60857843 3425980.49841350 187592.25013886 -123765.15881300 -60.93553583 93739.93088212 -493469.66916030 3425980.49841350
1.7100000000000013 212318.88788971 41613.12381399 -57.62397189 382034.97691465 -261477.14012202 3150170.36758484 179557.04743603 -120707.20336557 -57.62397189 85247.26392125 -455031.78173234 3150170.36758484
1.7400000000000013 206867.61896071 38785.58264366 -53.86244437 355249.44853560 -244536.70944470 2927374.75114494 173703.04467464 -118851.94767543 -53.86244437 78285.72857491 -424112.85956969 2927374.75114494
1.7700000000000014 204199.59071074 36888.83175500 -50.21776056 337132.39986261 -233259.90139691 2776472.95146117 170475.25839109 -118306.57222307 -50.21776056 73448.94804388 -403328.26415720 2776472.95146117
1.8000000000000014 204421.49233426 36060.65856816 -47.20335794 329007.41483931 -228459.27679894 2708510.63365643 170046.55965743 -119049.08724223 -47.20335794 71098.27024403 -394188.47794304 2708510.63365643
1.8300000000000014 207362.44431986 36329.44934523 -45.24949432 331170.01668724 -230281.81812670 2726004.26610083 172316.19053078 -120938.59055321 -45.24949432 71338.72934385 -397006.39970657 2726004.26610083
1.8600000000000014 212609.05791226 37616.97291549 -44.66230018 342908.47754775 -238228.20795366 2823104.98360504 176936.52322770 -123738.08995519 -44.66230018 74020.12848642 -410925.69111432 2823104.98360504
1.8900000000000015 219562.22473362 39751.00325991 -45.58939441 362620.94083918 -251233.83896122 2986562.41335904 183362.14196560 -127145.73403750 -45.58939441 78762.57507462 -434060.87746064 2986562.41335904
1.9200000000000015 227507.71301164 42486.42246706 -48.02902315 388013.46070370 -267800.18681526 3197355.39068232 190914.68407758 -130829.80920796 -48.02902315 85003.62115515 -463730.27735534 3197355.39068232
1.9500000000000015 235690.84172713 45532.14371716 -51.83748509 416354.36451793 -286161.02960421 3432799.80600578 198854.68003318 -134462.50486445 -51.83748509 92060.58998279 -496753.39907170 3432799.80600578
1.9800000000000015 243386.41872030 48581.16485631 -56.74320494 444758.52679095 -304465.45433123 3668910.75908735 206452.25823367 -137748.11601800 -56.74320494 99202.18288976 -529781.35767908 3668910.75908735
2.0100000000000016 249957.59778395 51340.78719772 -62.38229474 470473.37698305 -320959.29647114 3882781.43220701 213050.13118109 -140443.29362317 -62.38229474 105722.42021285 -559627.41025205 3882781.43220701
2.0400000000000014 254900.28537186 53560.10457553 -68.33750226 491138.65942202 -334148.09043336 4054749.99936886 218114.43345925 -142369.00716641 -68.33750226 111009.09591421 -583565.85724615 4054749.99936886
2.070000000000001 257872.71004991 55052.29981565 -74.17659554 504996.44056671 -342927.32745273 4170155.72306978 221271.39647880 -143415.68743968 -74.17659554 114600.16890379 -599572.64629579 4170155.72306978
2.100000000000001 258711.22635784 55709.75942850 -79.49752424 511033.32038557 -346669.41196449 4220531.44800921 222329.21119688 -143543.71385655 -79.49752424 116222.83422687 -606487.41828696 4220531.44800921
2.130000000000001 257434.68420288 55510.96093467 -83.96421860 509044.08873337 -345261.49177446 4204140.50123657 221285.98781956 -142781.63400538 -83.96421860 115811.78494999 -604085.26918259 4204140.50123657
2.1600000000000006 254238.02718867 54518.56263793 -87.34129436 499613.85588286 -339092.57278777 4125831.94135478 218323.87840242 -141222.98771877 -87.34129436 113505.68780130 -593055.00313775 4125831.94135478
2.1900000000000004 249476.04419988 52869.49564838 -89.51666544 484023.92764821 -328993.48613017 3996257.32555546 213790.58148821 -139021.82370644 -89.51666544 109623.07648775 -574890.12650544 3996257.32555546
2.22 243636.59419093 50758.15685545 -90.51066135 464093.84610149 -316137.13914643 3830553.28203720 208168.52481062 -136385.65098458 -90.51066135 104621.19080996 -551706.62056067 3830553.28203720
2.25 237302.53064053 48414.70325992 -90.47791098 441977.90103405 -301909.94205468 3646643.48628228 202032.59359287 -133563.86362443 -90.47791098 99043.00362128 -526008.13829027 3646643.48628228
2.28 231103.06770373 46080.82257749 -89.68722450 419938.24752553 -287767.90085226 3463346.33607207 195998.60845352 -130830.48419912 -89.68722450 93458.54840445 -500423.81660535 3463346.33607207
2.3099999999999996 225656.88174887 43985.46696476 -88.49632584 400118.09235147 -275091.72711316 3298485.12053905 190665.93327047 -128461.08934160 -88.49632584 88406.99068711 -477445.44206718 3298485.12053905
2.3399999999999994 221511.62638224 42323.00299705 -87.31093852 384337.42835821 -265055.19573258 3167188.55579585 186559.25554594 -126705.49070715 -87.31093852 84345.27556465 -459189.92814713 3167188.55579585
2.369999999999999 219086.36493917 41235.79729767 -86.54175810 373930.40809891 -258519.12106931 3080540.58716757 184075.56621082 -125759.34241718 -86.54175810 81608.10368410 -447209.35083308 3080540.58716757
2.399999999999999 218624.62559027 40802.81952287 -86.55801044 369638.51406726 -255960.60645340 3044695.73405150 183442.90566540 -125739.00491310 -86.55801044 80382.41934486 -442365.38042450 3044695.73405150
2.429999999999999 220164.81871281 41034.96708504 -87.64906067 371567.14388254 -257443.10045593 3060523.01718593 184696.13978213 -126663.93279893 -87.64906067 80697.88500338 -444777.40920754 3060523.01718593
2.4599999999999986 223533.68330283 41877.45157001 -89.99290139 379206.85337673 -262628.85728519 3123786.78823302 187674.01327100 -128450.35330307 -89.99290139 82433.09157347 -453846.38341673 3123786.78823302
2.4899999999999984 228364.44580408 43218.39222792 -93.64078301 391513.89664706 -270830.69366990 3225818.67396390 192038.06642631 -130918.02999363 -93.64078301 85335.91120046 -468348.35129535 3225818.67396390
2.5199999999999982 234138.24186921 44902.64907586 -98.51715382 407039.20635653 -281096.27773401 3354589.95655864 197311.70621560 -133809.77090603 -98.51715382 89055.09887148 -486585.26717551 3354589.95655864
2.549999999999998 240244.21641297 46749.23076004 -104.42893440 424090.83916079 -292315.18623734 3496059.74807818 202935.01265213 -136821.61648078 -104.42893440 93179.45777746 -506575.55864192 3496059.74807818
2.579999999999998 246050.44624618 48570.36460997 -111.09339707 440912.31342420 -303336.89467946 3635653.33528552 208328.37323507 -139639.50487424 -111.09339707 97280.51151899 -526263.66194282 3635653.33528552
2.6099999999999977 250976.60699585 50190.32071699 -118.16789287 455858.61771338 -313087.44248198 3759720.29846312 212957.17685487 -141977.34459704 -118.16789287 100954.46616409 -543726.97353082 3759720.29846312
2.6399999999999975 254559.10937673 51462.11829087 -125.28981678 467552.68099202 -320672.91754720 3856830.43904649 216389.68527079 -143611.25963539 -125.28981678 103859.67675091 -557359.66583191 3856830.43904649
2.6699999999999973 256500.57200683 52280.58168112 -132.11557582 475007.83186152 -325459.97568580 3918788.24580847 218341.24767536 -144405.34001316 -132.11557582 105746.30321376 -566016.21483824 3918788.24580847
2.699999999999997 256697.89724334 52590.63830190 -138.35526190 477705.75040759 -327126.28671504 3941279.26135388 218700.02082730 -144325.62688690 -138.35526190 106475.75988444 -569102.19116559 3941279.26135388
2.729999999999997 255246.18619826 52390.28146632 -143.80200450 475624.23707055 -325677.16859092 3924101.44483276 217531.83242590 -143440.78583968 -143.80200450 106028.58894099 -566605.65771754 3924101.44483276
2.7599999999999967 252418.79306683 51727.99761321 -148.35172239 469214.39908717 -321428.32079529 3870978.11579353 215064.25816599 -141909.82238698 -148.35172239 104500.53812515 -559068.82872467 3870978.11579353
2.7899999999999965 248627.46829864 50695.45401661 -152.01027638 459331.93973114 -314958.16551779 3788990.72394381 211653.26813368 -139959.06951274 -152.01027638 102087.67477176 -547505.78402716 3788990.72394381
2.8199999999999963 244368.58288725 49416.19141393 -154.88863222 447131.61409279 -307036.17932637 3687706.17851067 207737.20611773 -137852.15801932 -154.88863222 99062.43193662 -533277.16087919 3687706.17851067
2.849999999999996 240162.55689577 48031.70092617 -157.19149379 433937.19649921 -298535.69586229 3578100.54182045 203784.11400492 -135857.03113128 -157.19149379 95743.31928320 -517936.54922414 3578100.54182045
