# Level force for level 35
# start: 0.0, 0.0, 159.72209444444442
# center: 0.0, 0.0, 162.0369074074074
# end: 0.0, 0.0, 164.35172037037037
# as part of FluidModelPart.Drag_structure
# Time Fx Fy Fz Mx My Mz Fx' Fy' Fz' Mx' My' Mz'
0.03 7792.42003365 -53764.40747933 -1.39105962 120553.49875272 5292.95322641 -658792.56015586 -32507.10406746 -43527.25016275 -1.39105962 88986.87958271 -81501.51334491 -658792.56015586
0.06 22236.18946420 -153753.50841918 -3.91679962 344751.33420094 15113.89703559 -1883857.52615646 -92996.78807654 -124443.50879231 -3.91679962 254463.14532061 -233088.86715258 -1883857.52615646
0.09 41802.28444625 -288789.58905677 -7.35650674 647526.53320147 28373.74053329 -3538199.87606283 -174646.39795709 -233763.75555915 -7.35650674 477933.66696369 -437807.13828626 -3538199.87606283
0.12 64642.13011331 -445095.38911191 -11.41364412 997979.77371918 43731.55823374 -5452966.07313402 -269021.07936243 -360438.85646936 -11.41364412 736601.14686278 -674755.38410492 -5452966.07313402
0.15 88677.25811278 -607586.31228373 -15.75972113 1362283.85120558 59713.81520125 -7443330.94940263 -366924.11102338 -492332.69212053 -15.75972113 1005504.19274772 -921056.10542907 -7443330.94940263
0.18 111698.34862726 -761245.75159671 -20.06672372 1706774.20889869 74841.95352635 -9325399.91038170 -459299.37334181 -617264.69286516 -20.06672372 1259792.86992230 -1153950.36421084 -9325399.91038170
0.21 131506.86145283 -892452.31605537 -24.02221652 2000927.28969190 87759.66981345 -10932487.35318399 -538069.69106254 -724048.47807424 -24.02221652 1476924.71284215 -1352813.79756258 -10932487.35318399
0.24 146116.51755393 -990147.72940407 -27.32758435 2219975.25428143 97351.34756022 -12129387.24710494 -596820.19343234 -803460.15424383 -27.32758435 1638597.35438621 -1500921.75835125 -12129387.24710494
0.27 154000.30858648 -1046749.44657862 -29.71713683 2346943.53748488 102841.64249475 -12823464.28711226 -631268.96937268 -849058.29438533 -29.71713683 1732259.71321391 -1586819.66762110 -12823464.28711226
0.30000000000000004 154335.01017105 -1058730.72606131 -30.98347952 2373940.60899295 103865.38171956 -12971652.25652659 -639504.34358206 -857767.00811496 -30.98347952 1752073.41849747 -1605185.58700861 -12971652.25652659
0.33000000000000007 147180.35556545 -1026816.72611551 -31.04701335 2302589.66588394 100497.90010416 -12582774.22813712 -621996.84259427 -830141.29754982 -31.04701335 1699239.51369526 -1557114.02037794 -12582774.22813712
0.3600000000000001 133532.17974678 -955779.04297554 -30.00316637 2143564.72794453 93239.90322538 -11715004.66511600 -581416.33279842 -770259.35240957 -30.00316637 1581659.72288972 -1449798.58719403 -11715004.66511600
0.3900000000000001 115215.49182427 -853850.68530388 -28.06683175 1915281.74608819 82956.31830381 -10468756.26404294 -522293.95413247 -685233.26526584 -28.06683175 1412967.68575667 -1295649.73532687 -10468756.26404294
0.42000000000000015 94631.57203708 -731823.92174831 -25.54880983 1641885.48163867 70776.50373911 -8975728.43870266 -450563.03140100 -584392.28400453 -25.54880983 1211034.90374104 -1110941.81225585 -8975728.43870266
0.4500000000000002 74400.87588007 -601928.42221159 -22.73990479 1350745.75306233 57967.97339728 -7385287.66154562 -373018.30527372 -478237.03299575 -22.73990479 996111.02873016 -914131.93456845 -7385287.66154562
0.4800000000000002 56981.16741516 -476610.35387432 -19.87310106 1069732.84629642 45800.34489780 -5849615.05605879 -296722.64332907 -377306.18308744 -19.87310106 788801.08413210 -724029.61521627 -5849615.05605879
0.5100000000000002 44333.89838956 -367340.76916563 -17.12184126 824554.97731173 35416.35435423 -4509171.15891530 -228400.34869560 -291097.94907099 -17.12184126 608091.56024703 -558005.27158946 -4509171.15891530
0.5400000000000003 37694.52090563 -283572.66045162 -14.62399150 636423.33797767 27724.41376505 -3479930.63184068 -173862.09981850 -227170.20251040 -14.62399150 469623.37896708 -430415.13701169 -3479930.63184068
0.5700000000000003 37470.97775801 -231943.03325202 -12.51635574 520260.38687834 23322.76534300 -2843573.02111430 -137512.50919110 -190504.47413186 -12.51635574 384371.33307447 -351387.96201435 -2843573.02111430
0.6000000000000003 43264.84042775 -215783.98135127 -10.94264294 483596.35417622 22459.93625447 -2641429.76763103 -121989.45443150 -183175.17853833 -10.94264294 357835.83462565 -326072.68816455 -2641429.76763103
0.6300000000000003 53989.01311417 -234970.65342663 -10.05717241 526218.63766248 25031.87747426 -2872545.93864204 -127973.34513521 -204325.33970040 -10.05717241 389792.97738576 -354392.55677001 -2872545.93864204
0.6600000000000004 68051.33026565 -286099.22235149 -10.00558121 640560.75306095 30612.47285048 -3495785.84943567 -154183.14311732 -250422.25731654 -10.00558121 474591.13939283 -431298.56510989 -3495785.84943567
0.6900000000000004 83572.39255259 -362958.01819448 -10.91239977 812749.68095104 38512.11761840 -4435536.31702432 -197555.47045743 -315744.68144527 -10.91239977 601932.99033351 -547468.63128186 -4435536.31702432
0.7200000000000004 98617.27536255 -457232.12503660 -12.86118836 1024178.14450687 47857.46955032 -5590277.53951679 -253578.99203872 -393044.88034072 -12.86118836 758043.65237333 -690362.96987440 -5590277.53951679
0.7500000000000004 111422.66268947 -559365.90415753 -15.88034390 1253432.95904309 57684.50359354 -6843097.65886813 -316743.70362875 -474319.14435992 -15.88034390 927100.04876246 -845521.84144172 -6843097.65886813
0.7800000000000005 120601.21882585 -659499.37141178 -19.92885246 1478391.32041360 67035.94475867 -8073126.36544163 -381058.53806241 -551614.41736466 -19.92885246 1092782.09903389 -997978.95678969 -8073126.36544163
0.8100000000000005 125301.10563415 -748392.25350728 -24.88243122 1678292.62522894 75053.59765035 -9166841.73565187 -440591.97595839 -617794.49892656 -24.88243122 1239803.00396577 -1133661.18826375 -9166841.73565187
0.8400000000000005 125296.56385617 -818253.78906023 -30.52505635 1835602.97328420 81056.37664326 -10028258.57624137 -489994.75301400 -667190.85293815 -30.52505635 1355282.82355831 -1240651.79639259 -10028258.57624137
0.8700000000000006 120990.74166534 -863406.75346758 -36.54308630 1937512.36822700 84596.28205251 -10587129.62545827 -524967.39640683 -696074.14419154 -36.54308630 1429846.73890862 -1310209.52950362 -10587129.62545827
0.9000000000000006 113324.99578419 -880730.41635653 -42.54965147 1976939.77910021 85487.55169379 -10804476.13377166 -542637.57680602 -702903.32279990 -42.54965147 1458356.35130891 -1337458.69628948 -10804476.13377166
0.9300000000000006 103609.46016640 -869848.29165871 -48.11721265 1952967.56078796 83807.44838629 -10675010.38246240 -541812.67375667 -688338.57751415 -48.11721265 1440217.42073840 -1321695.79060263 -10675010.38246240
0.9600000000000006 93304.37985038 -833050.83623851 -52.83604856 1870680.56556535 79871.06708448 -10226301.62963792 -523079.73567077 -655032.05508398 -52.83604856 1379248.28650119 -1266293.54018911 -10226301.62963792
0.9900000000000007 83797.86861085 -774969.01615750 -56.37416289 1740442.10393659 74184.85440977 -9514853.52932676 -488731.80539072 -607239.88767814 -56.37416289 1283135.02757063 -1178221.80034166 -9514853.52932676
1.0200000000000007 76217.03301025 -702037.78023880 -58.53577462 1576693.68521303 67385.99038288 -8619558.84193296 -442522.09417254 -550309.25593947 -58.53577462 1162539.88742485 -1067241.70591143 -8619558.84193296
1.0500000000000007 71303.42024705 -621808.85359315 -59.30251392 1396410.53115728 60174.47298194 -7633255.74106292 -389266.12499907 -490104.38895603 -59.30251392 1029961.13380148 -944861.57800176 -7633255.74106292
1.0800000000000007 69363.99207471 -542185.04553848 -58.84630917 1217376.33281679 53244.98778613 -6653281.41282476 -334334.97319200 -432430.47152440 -58.84630917 898464.95211853 -823165.16826300 -6653281.41282476
1.1100000000000008 70292.91109520 -470653.82541262 -57.51468644 1056453.59452485 47224.45288575 -5771992.23302609 -283097.91743589 -382507.10564542 -57.51468644 780418.23157076 -713632.76982408 -5771992.23302609
1.1400000000000008 73647.39335181 -413594.87692593 -55.77861059 928019.77631340 42620.01190714 -5068183.25982646 -240379.17088257 -344532.31339412 -55.77861059 686345.97634022 -626072.17747264 -5068183.25982646
1.1700000000000008 78755.21738408 -375725.58619746 -54.17938469 842713.88184803 39780.90082435 -4600207.20070961 -209989.76159941 -321366.45813162 -54.17938469 624018.04518939 -567759.35572017 -4600207.20070961
1.2000000000000008 84833.06893545 -359731.26020259 -53.24232324 806600.80050507 38876.45428404 -4401384.91998372 -194382.37518091 -314354.45180716 -53.24232324 597842.70020037 -542863.09129490 -4401384.91998372
1.2300000000000009 91096.68732003 -366105.93743333 -53.43402799 820810.57807366 39891.28353097 -4478024.00547581 -194460.90564414 -323291.07633939 -53.43402799 608608.12292052 -552193.32873055 -4478024.00547581
1.260000000000001 96852.47354007 -393208.02847664 -55.10293602 881663.34565416 42636.75279531 -4810087.02224967 -209555.02253795 -346525.10416770 -55.10293602 653578.86746502 -593281.39340634 -4810087.02224967
1.290000000000001 101560.93198866 -437514.17701491 -58.46246121 981241.19597267 46776.90610804 -5354311.16615188 -237554.81771969 -381183.66514530 -58.46246121 726918.57116379 -660766.03613995 -5354311.16615188
1.320000000000001 104872.44392842 -494037.38943833 -63.56902291 1108330.46404881 51865.87288825 -6049360.97558189 -275181.17197015 -423493.20449294 -63.56902291 820382.69735599 -747033.27649311 -6049360.97558189
1.350000000000001 106635.38825986 -556862.64740718 -70.32396947 1249628.26450693 57393.19110710 -6822434.04020532 -318358.74801810 -469163.96032412 -70.32396947 924203.73442100 -843037.50516946 -6822434.04020532
1.380000000000001 106881.07703279 -619745.18945315 -78.49934329 1391089.75314836 62832.66053022 -7596640.27270877 -362649.69171966 -513802.36042047 -78.49934329 1028078.39803124 -939219.59734941 -7596640.27270877
1.410000000000001 105791.70568252 -676714.01247126 -87.74389847 1519285.12627394 67690.36337565 -8298438.55686739 -403703.03466098 -553315.09962379 -87.74389847 1122161.13030807 -1026432.50038026 -8298438.55686739
1.440000000000001 103658.12790432 -722624.87864457 -97.63016195 1622643.18403464 71548.05331798 -8864449.37461151 -437675.58677744 -584270.31710993 -97.63016195 1197974.11255886 -1096789.88519519 -8864449.37461151
1.470000000000001 100834.53781566 -753613.36476292 -107.70112559 1692470.17019095 74098.28820429 -9247037.35099011 -461584.33514941 -604185.90608394 -107.70112559 1249152.53636154 -1144361.73223441 -9247037.35099011
1.500000000000001 97695.00714582 -767409.18859023 -117.50897443 1723655.62923746 75168.32156504 -9418179.48293613 -473559.43915614 -611721.04323790 -117.50897443 1271960.61377323 -1165656.55395512 -9418179.48293613
1.5300000000000011 94596.65883532 -763486.59441616 -126.63739305 1715009.51668492 74730.75987447 -9371312.61620548 -472976.60931664 -606756.48719674 -126.63739305 1265537.48611783 -1159852.23197691 -9371312.61620548
1.5600000000000012 91849.86018607 -743041.55196243 -134.72969690 1669210.22673744 72900.60219312 -9121052.57514634 -460462.06110740 -590357.37908462 -134.72969690 1231858.38071531 -1128761.36038864 -9121052.57514634
1.5900000000000012 89697.14914716 -708803.34484038 -141.50796317 1592382.01544419 69918.79170984 -8700882.92212614 -437774.18924928 -564625.11407940 -141.50796317 1175424.17311049 -1076544.06960969 -8700882.92212614
1.6200000000000012 88300.45540715 -664704.89475262 -146.80986888 1493355.58609801 66124.60023466 -8159107.40821491 -407579.48776721 -532455.18936773 -146.80986888 1102719.01488189 -1009204.70842353 -8159107.40821491
1.6500000000000012 87735.56960568 -615449.12001719 -150.61431673 1382695.48286010 61919.51734054 -7553526.39613911 -373149.83002001 -497226.66245889 -150.61431673 1021497.06284568 -933929.64164709 -7553526.39613911
1.6800000000000013 87993.56774172 -566018.51502504 -153.06489825 1271599.63711725 57726.51988283 -6945415.15802548 -338014.68180038 -462456.37870232 -153.06489825 939975.54002342 -858337.91269651 -6945415.15802548
1.7100000000000013 88988.50978094 -521178.99810048 -154.43806948 1170784.60602696 53948.75538041 -6393428.54831168 -305604.82505507 -431453.58248265 -154.43806948 866017.26499655 -789722.20346442 -6393428.54831168
1.7400000000000013 90570.73432205 -485027.76376665 -155.13379019 1089469.46687322 50931.78479127 -5948040.44264355 -278923.24040698 -407009.60123932 -155.13379019 806385.45832559 -734357.03751791 -5948040.44264355
1.7700000000000014 92544.72564915 -460627.82163178 -155.63966536 1034553.62810736 48932.93279352 -5647040.96859952 -260274.05320946 -391152.05934859 -155.63966536 766140.69453750 -696939.07733421 -5647040.96859952
1.8000000000000014 94691.16521958 -449760.89669805 -156.48751150 1010059.19059981 48100.45055472 -5512484.93751049 -251072.21492252 -384985.74501295 -156.48751150 748231.85783829 -680207.54830755 -5512484.93751049
1.8300000000000014 96790.56418160 -452817.22194427 -158.20477465 1016879.65911835 48464.32859973 -5549313.62331591 -251748.86398717 -388631.39256253 -158.20477465 753311.95801177 -684773.04721472 -5549313.62331591
1.8600000000000014 98647.60715914 -468825.54823636 -161.20191242 1052846.26937050 49938.85157331 -5745702.12225229 -261755.33238138 -401264.11632149 -161.20191242 779786.83721099 -709162.63602668 -5745702.12225229
1.8900000000000015 100111.91133192 -495613.10556616 -165.74913284 1113084.84525589 52336.36332709 -6075010.00777094 -279661.57641040 -421241.19917110 -165.74913284 824077.23952765 -750062.44470519 -6075010.00777094
1.9200000000000015 101092.69862076 -530073.22077564 -171.95822750 1190615.18160701 55390.11230948 -6499061.67075274 -303335.03621266 -446301.70165904 -171.95822750 881058.79272269 -802725.34467325 -6499061.67075274
1.9500000000000015 101564.78360985 -568509.57900517 -179.75864644 1277124.88309740 58783.38969733 -6972376.45470012 -330179.83126379 -473814.12570433 -179.75864644 944629.79873637 -861497.53178413 -6972376.45470012
1.9800000000000015 101564.49950176 -607020.33012030 -188.89926321 1363834.13088734 62181.94232901 -7446899.26861165 -357411.24542065 -501045.13807168 -188.89926321 1008345.63545230 -920407.08927590 -7446899.26861165
2.0100000000000016 101176.34051110 -641883.70143466 -198.97915959 1442364.63482285 65266.39358239 -7876757.10314879 -382337.84154653 -525422.79448861 -198.97915959 1066056.12371260 -973755.50474120 -7876757.10314879
2.0400000000000014 100513.20486887 -669908.40654997 -209.49835014 1505529.81834049 67761.69087155 -8222587.01346034 -402623.20828379 -544770.34580693 -209.49835014 1112485.09494705 -1016655.59270718 -8222587.01346034
2.070000000000001 99694.80390989 -688717.07699775 -219.91465916 1547974.32292667 69461.04578338 -8455041.16759969 -416501.64357034 -557491.38735783 -219.91465916 1143699.51734584 -1045466.76434237 -8455041.16759969
2.100000000000001 98828.51478168 -696938.52970092 -229.70980259 1566607.86948626 70242.54597041 -8557167.26455230 -422927.64744498 -562692.27339842 -229.70980259 1157428.02855743 -1058090.06739046 -8557167.26455230
2.130000000000001 97997.24604959 -694294.19584855 -238.44284094 1560800.38546435 70077.17087602 -8525481.97031456 -421645.61680370 -560234.65124225 -238.44284094 1153204.57937322 -1054100.49390762 -8525481.97031456
2.1600000000000006 97255.34185188 -681574.73965127 -245.80073226 1532329.15614333 69027.90535349 -8369685.84323677 -413176.20856279 -550716.03202295 -245.80073226 1132330.43728536 -1034710.23735226 -8369685.84323677
2.1900000000000004 96632.88583015 -660513.53879340 -251.62433729 1485093.47654365 67240.16733449 -8111103.87258357 -398723.83349021 -535383.37120247 -251.62433729 1097665.64625026 -1002573.68966958 -8111103.87258357
2.22 96145.55605412 -633573.72092423 -255.92022948 1424634.41729313 64924.77581087 -7780057.60050064 -380019.09978029 -515989.44911393 -255.92022948 1053277.40642260 -961459.90793683 -7780057.60050064
2.25 95805.66107255 -603673.16507176 -258.85667003 1357515.26200389 62335.24275244 -7412472.56977590 -359116.55602213 -494606.22126305 -258.85667003 1003985.92018434 -915830.57447003 -7412472.56977590
2.28 95630.88995827 -573877.36100012 -260.73690981 1290630.00665236 59741.57418169 -7046091.07939356 -338171.32275223 -473413.82431303 -260.73690981 954856.90192936 -870369.55748409 -7046091.07939356
2.3099999999999996 95647.41516560 -547091.90564232 -261.96538983 1230511.67353921 57403.28285500 -6716683.24508539 -319219.46054539 -454485.33227852 -261.96538983 910693.39925793 -829512.89811964 -6716683.24508539
2.3399999999999994 95886.47434537 -525785.15004743 -263.00013303 1182709.04086108 55544.22533817 -6454632.98073902 -303984.26881204 -439588.22127941 -263.00013303 875577.28135588 -797025.88457114 -6454632.98073902
2.369999999999999 96375.18585871 -511767.11692886 -264.30508640 1151290.29875919 54331.76860775 -6282219.58788617 -293726.45130988 -430021.54622750 -264.30508640 852503.53938331 -775666.81535051 -6282219.58788617
2.399999999999999 97124.69125599 -506043.91783399 -266.29846264 1138516.69736155 53862.22304470 -6211830.78605221 -289149.55807087 -426504.61368639 -266.29846264 843139.22036315 -766966.53403378 -6211830.78605221
2.429999999999999 98118.71983049 -508758.44587094 -269.31272927 1144709.92058493 54153.93272243 -6245237.00511394 -290366.13490779 -429126.95921476 -269.31272927 847724.76039307 -771139.53428116 -6245237.00511394
2.4599999999999986 99306.73205635 -519218.89729764 -273.55969673 1168316.71887908 55148.44299782 -6373945.89853954 -296922.73954485 -437363.66685388 -273.55969673 865120.51250866 -787128.83647738 -6373945.89853954
2.4899999999999984 100603.54953838 -536008.06326184 -279.11583191 1206154.49641885 56719.49076846 -6580547.43459001 -307877.48421309 -450152.38839314 -279.11583191 892986.76012424 -812773.28702859 -6580547.43459001
2.5199999999999982 101896.38532407 -557158.53096146 -285.91877954 1253804.75416037 58688.53960114 -6840867.75433051 -321918.95039774 -466022.20047983 -285.91877954 928072.90828063 -845074.77962083 -6840867.75433051
2.549999999999998 103058.86330585 -580373.44998323 -293.77690699 1306108.54242905 60845.02713558 -7126681.05976246 -337512.38099883 -483259.62320872 -293.77690699 966582.13860631 -880534.27602821 -7126681.05976246
2.579999999999998 103969.15461445 -603268.87912637 -302.39626164 1357710.35891331 62969.13577838 -7408685.71420638 -353058.22104695 -500092.80957118 -302.39626164 1004572.10458917 -915520.29876048 -7408685.71420638
2.6099999999999977 104529.22331029 -623612.88736654 -311.41255189 1403594.85097085 64854.53641711 -7659440.36021271 -367047.57885734 -514874.22412707 -311.41255189 1038350.51965126 -946632.35466877 -7659440.36021271
2.6399999999999975 104681.47651416 -639538.04004402 -320.43173527 1439563.92956458 66328.78844105 -7855973.51680757 -378200.70303410 -526242.66684966 -320.43173527 1064826.95264122 -971023.88045212 -7855973.51680757
2.6699999999999973 104419.76225785 -649707.57320056 -329.07187790 1462610.13075447 67269.34614525 -7981825.36732421 -385576.70881596 -533248.55278078 -329.07187790 1081788.15251391 -986654.93086334 -7981825.36732421
2.699999999999997 103792.73202523 -653420.99683947 -337.00067651 1471154.22964789 67613.67286849 -8028347.05166179 -388645.87318195 -535430.96248778 -337.00067651 1088073.21854153 -992453.04536906 -8028347.05166179
2.729999999999997 102898.79230186 -650651.47468117 -343.97021402 1465129.83964965 67362.68851745 -7995163.40432894 -387319.63612353 -532840.50374864 -343.97021402 1083635.85878468 -988370.63108538 -7995163.40432894
2.7599999999999967 101873.26354489 -642014.53997411 -349.84109240 1445913.80796565 66577.47871991 -7889792.76401287 -381937.55936186 -526008.11031025 -349.84109240 1069492.84530093 -975338.07194663 -7889792.76401287
2.7899999999999965 100870.13561410 -628674.40790960 -354.59214732 1416116.58480970 65369.89668699 -7726501.53839117 -373213.98007938 -515865.89390325 -354.59214732 1047569.13730250 -955122.14283684 -7726501.53839117
