# Level force for level 26
# start: 0.0, 0.0, 118.0554611111111
# center: 0.0, 0.0, 120.37027407407408
# end: 0.0, 0.0, 122.68508703703704
# as part of FluidModelPart.Drag_structure
# Time Fx Fy Fz Mx My Mz Fx' Fy' Fz' Mx' My' Mz'
0.03 23434.01111581 15464.03631544 -0.93214643 95121.98767078 14441.81294622 221767.55534256 27505.07311355 -5635.62322722 -0.93214643 77473.30638885 -57049.49865506 221767.55534256
0.06 66951.67606025 44225.20442691 -2.53824698 272018.87131429 41289.71278236 634180.63671162 78613.92610364 -16070.04220438 -2.53824698 221542.62441869 -163150.15261539 634180.63671162
0.09 125791.29322176 83067.93855680 -4.62060655 510892.31762722 77544.14239386 1191072.02595446 147685.77910403 -30209.97379863 -4.62060655 416087.41117831 -306423.43332232 1191072.02595446
0.12 194127.88133098 128028.28516353 -6.93182596 787333.99858524 119506.99501580 1835516.74388765 227798.80992933 -46739.47268370 -6.93182596 641233.41603325 -472225.00288344 1835516.74388765
0.15 265515.90010218 174766.15585968 -9.17562352 1074635.37334716 163126.74634466 2505210.55787739 311326.42740539 -64169.75954481 -9.17562352 875229.98832992 -644533.93126351 2505210.55787739
0.18 333365.03023625 218961.51382589 -11.03597576 1346245.23280733 204366.17432782 3138197.60162154 390553.84473567 -80895.50224535 -11.03597576 1096447.84097048 -807430.42554577 3138197.60162154
0.21 391456.87551899 256696.53144626 -12.24187967 1578129.59995115 239558.58829687 3678383.14214677 458313.66931429 -95289.95312886 -12.24187967 1285299.64399286 -946512.63944048 3678383.14214677
0.24 434495.65850684 284791.56319062 -12.64813707 1750828.63782280 265723.36924023 4080356.64664066 508612.87208311 -105856.78096950 -12.64813707 1425917.59880961 -1050128.00619061 4080356.64664066
0.27 458650.48974771 301067.37216687 -12.28348540 1851041.30606201 280815.05853131 4313118.07023472 537201.65194835 -111428.09104193 -12.28348540 1507450.09191964 -1110317.62762607 4313118.07023472
0.30000000000000004 462008.77124496 304511.40113309 -11.33912822 1872610.00487253 283883.56284300 4362395.97493785 542011.61180480 -111367.45842515 -11.33912822 1524871.22531682 -1123399.24060945 4362395.97493785
0.33000000000000007 444848.85738893 295333.52849511 -10.09961391 1816828.95565313 275130.60897408 4231355.88790135 523387.98437344 -105723.30295216 -10.09961391 1479238.79411596 -1090145.35548085 4231355.88790135
0.3600000000000001 409651.00428320 274906.41673859 -8.85295952 1692059.58456743 255855.83921817 3939665.06311337 484055.19451608 -95278.81158097 -8.85295952 1377384.20533666 -1015549.40750198 3939665.06311337
0.3900000000000001 360809.59649648 245596.93752668 -7.82653695 1512701.17657668 228297.19787827 3521050.13845007 428794.17236361 -81467.65243608 -7.82653695 1231071.75661185 -908210.76312063 3521050.13845007
0.42000000000000015 304082.29493397 210506.95505134 -7.11874283 1297627.68941484 195384.80368338 3019601.71793237 363869.54819031 -66167.75738285 -7.11874283 1055719.25826598 -779403.41901534 3019601.71793237
0.4500000000000002 245854.27098497 173151.20928641 -6.72325105 1068253.60068528 160432.83245111 2485256.60002832 296281.61645421 -51408.82794007 -6.72325105 868812.50882265 -641926.22132036 2485256.60002832
0.4800000000000002 192349.50339731 137107.03818232 -6.55065438 846427.67582058 126805.33349396 1968890.52736318 232960.95465722 -39062.32176299 -6.55065438 688179.66056090 -508849.83815250 1968890.52736318
0.5100000000000002 148913.33130191 105672.44696487 -6.48025456 652366.40342081 97591.19243940 1517521.89611810 180019.33020610 -30575.92253922 -6.48025456 530300.10163512 -392285.31371915 1517521.89611810
0.5400000000000003 119465.30414872 81566.61722539 -6.41476440 502828.45739743 75321.53106110 1170084.05038039 142151.03483860 -26798.41852155 -6.41476440 408813.77738195 -302293.04661664 1170084.05038039
0.5700000000000003 106175.60478862 66700.40807450 -6.33343730 409698.19565706 61755.93586224 954148.93737911 122241.80100000 -27913.17928523 -6.33343730 333368.41341571 -246032.33136229 954148.93737911
0.6000000000000003 109372.04081806 62035.40802232 -6.29394398 379096.19201563 57754.10988501 883870.90133101 121203.36942092 -33472.05404840 -6.29394398 308899.81083733 -227223.16535517 883870.90133101
0.6300000000000003 127651.76616715 67539.54672146 -6.42704209 411073.85057724 63239.82398869 959281.93707932 138021.10097224 -42505.75800222 -6.42704209 335390.41569508 -245955.79892818 959281.93707932
0.6600000000000004 158156.80712633 82237.70657774 -6.88662845 499888.10653283 77254.12128294 1166931.12719116 169984.59080018 -53682.91081949 -6.88662845 408101.18299764 -298847.35693009 1166931.12719116
0.6900000000000004 196966.24773958 104346.52657431 -7.82751709 634797.07557996 98087.32358904 1481735.70687432 213060.30597549 -65492.03290757 -7.82751709 518227.52847823 -379511.10516173 1481735.70687432
0.7200000000000004 239564.13772012 131476.56395184 -9.36268723 801274.11433589 123473.20568034 1869810.51491906 262365.39624846 -76429.45637355 -9.36268723 653895.10086757 -479277.61880474 1869810.51491906
0.7500000000000004 281341.80223362 160879.95700461 -11.55036082 982508.09325166 150825.10351871 2291969.33438292 312698.00474560 -85179.38763567 -11.55036082 801387.58878016 -588088.68183767 2291969.33438292
0.7800000000000005 318089.78529623 189719.46380086 -14.39064114 1161042.65889768 177490.98369312 2707552.61086886 359075.36358581 -90771.52483247 -14.39064114 946486.21552228 -695476.05918453 2707552.61086886
0.8100000000000005 346429.05071446 215334.15559517 -17.82875086 1320404.56494415 201003.84306063 3078228.49682541 397226.57260264 -92698.08931779 -17.82875086 1075798.20225441 -791535.84130895 3078228.49682541
0.8400000000000005 364129.95428094 235478.28627840 -21.76049050 1446579.41785181 219304.73445272 3371432.42526175 423987.05295485 -90970.46685556 -21.76049050 1177957.98076573 -867814.25101007 3371432.42526175
0.8700000000000006 370277.43088388 248512.88425140 -26.02195696 1529210.86742056 230918.46742734 3563151.78232914 437550.82796472 -86100.53663193 -26.02195696 1244599.38843632 -918031.35999817 3563151.78232914
0.9000000000000006 365263.34162906 253534.02143367 -30.39724953 1562424.50454049 235067.08974570 3639825.32527858 437555.81160201 -79004.55996752 -30.39724953 1271018.49544559 -938583.42905964 3639825.32527858
0.9300000000000006 350617.41291419 250427.99171273 -34.60867609 1545211.23893020 231712.25533754 3599210.74188491 425003.28141271 -70844.61913470 -34.60867609 1256474.65244642 -928784.03838000 3599210.74188491
0.9600000000000006 328714.26726482 239850.00955042 -38.34855926 1481343.99069702 221525.22281134 3450168.04413068 402035.65567648 -62836.51923496 -38.34855926 1204110.36834556 -890826.39383805 3450168.04413068
0.9900000000000007 302416.84461507 223131.16630783 -41.29256446 1378844.32554745 205790.25454266 3211405.18611202 371618.56236268 -56063.44078202 -41.29256446 1120505.85728441 -829474.48830597 3211405.18611202
1.0200000000000007 274713.21771176 202124.35359193 -43.16114124 1249059.98797079 186253.85672104 2909329.87643911 337175.08019336 -51328.07805776 -43.16114124 1014920.15271253 -751517.42249334 2909329.87643911
1.0500000000000007 248397.18956355 179006.28888617 -43.77530963 1105452.80991161 164937.01732658 2575237.24319761 302219.89791451 -49066.77642162 -43.77530963 898301.26159053 -665045.09474992 2575237.24319761
1.0800000000000007 225822.50357169 156056.49230286 -43.10424180 962225.27899751 143930.43204155 2242129.81189598 270029.22757560 -49332.01966452 -43.10424180 782170.20432395 -578621.83529257 2242129.81189598
1.1100000000000008 208742.30946863 135435.70974175 -41.30577618 832927.87728333 125193.42129034 1941494.31736477 243370.61131901 -51835.59377261 -41.30577618 677494.06742070 -500443.83311201 1941494.31736477
1.1400000000000008 198230.82033933 118985.67116542 -38.64107059 729190.56193474 110375.56928776 1700352.60863390 224305.93224721 -56034.78235702 -38.64107059 593662.90464199 -437568.27760058 1700352.60863390
1.1700000000000008 194675.49869956 108068.45943481 -35.53845277 659691.29111647 100676.80777149 1538868.17009077 214072.30576007 -61240.42476259 -35.53845277 537661.43892160 -395282.93195473 1538868.17009077
1.2000000000000008 197825.33737867 103459.53844181 -32.47611612 629461.57870557 96757.20403382 1468729.89183503 213040.57876161 -66726.69634034 -32.47611612 513514.22590006 -376678.87569813 1468729.89183503
1.2300000000000009 206880.52560204 105301.66950825 -29.95537349 639572.92249269 98702.07564696 1492423.48150527 220746.14712818 -71827.09796909 -29.95537349 522039.25756503 -382453.44355073 1492423.48150527
1.260000000000001 220612.47174813 113121.14352062 -28.43354383 687216.96910706 106042.41297717 1603417.87778040 235985.30246644 -76007.84710842 -28.43354383 560919.08831161 -410952.46969253 1603417.87778040
1.290000000000001 237499.85366625 125901.18544504 -28.25552409 766151.31309374 117826.00456603 1787197.59570003 256963.33904583 -78912.17507061 -28.25552409 625066.35573232 -458435.22207481 1787197.59570003
1.320000000000001 255872.73743210 142202.86738978 -29.62646697 867447.35551755 132729.59842579 2023000.44950932 281481.95959449 -80376.73592352 -29.62646697 707231.90651984 -519523.90829775 2023000.44950932
1.350000000000001 274054.21053837 160319.88058551 -32.58868741 980457.23016701 149199.76527867 2286063.32051044 307148.86540544 -80422.31596338 -32.58868741 798788.12189446 -587787.79033448 2286063.32051044
1.380000000000001 290491.91972784 178451.26686923 -37.01816475 1093899.24240941 165608.32971887 2550142.22789582 331592.90723402 -79224.70540489 -37.01816475 890606.34520771 -656400.79927733 2550142.22789582
1.410000000000001 303872.73913158 194875.51536867 -42.62393717 1196955.75173572 180407.68582579 2790062.03710307 352668.27286209 -77072.67605326 -42.62393717 973943.02685816 -718808.03080698 2790062.03710307
1.440000000000001 313214.95310580 208109.89421267 -48.98180152 1280280.59202865 192271.88970075 2984060.44428208 368632.33473993 -74320.49988034 -48.98180152 1041251.84548394 -769338.33140604 2984060.44428208
1.470000000000001 317933.21690124 217040.92934466 -55.57275788 1336826.42118315 200211.40393843 3115714.48781588 378283.84656996 -71341.62070068 -55.57275788 1086849.86908369 -803708.18629220 3115714.48781588
1.500000000000001 317871.54361260 221014.78082845 -61.83373117 1362420.29200019 203651.94054489 3175284.94389201 381050.17430096 -68488.07376845 -61.83373117 1107380.29546058 -819372.95913840 3175284.94389201
1.5300000000000011 313301.91389371 219880.47442496 -67.21016601 1356041.40304855 202471.22288329 3160369.74315270 377016.88238937 -66058.93335656 -67.21016601 1102034.84636125 -815697.29696944 3160369.74315270
1.5600000000000012 304886.29083654 213983.09071974 -71.22763618 1319784.49107905 196991.59960647 3075827.09326707 366896.05824852 -64278.26923415 -71.22763618 1072522.65926535 -793934.46742831 3075827.09326707
1.5900000000000012 293604.87372436 204109.57358809 -73.54304742 1258523.11412111 187930.57463560 2932998.26952586 351937.26078914 -63282.73361068 -73.54304742 1022797.21199216 -757023.24455794 2932998.26952586
1.6200000000000012 280656.55729666 191393.65723726 -73.97433913 1179317.35460064 176315.50060220 2748329.47816667 333789.90775750 -63118.40194038 -73.97433913 958577.18471321 -709229.41250497 2748329.47816667
1.6500000000000012 267340.11170038 177191.05151656 -72.51235708 1090633.43921639 163371.68572087 2541554.50390974 314330.99995945 -63745.01177357 -72.51235708 886715.52748582 -655673.07383161 2541554.50390974
1.6800000000000013 254928.50924194 162938.18046121 -69.35895303 1001458.03979813 150395.90427987 2333632.36728148 295476.36992107 -65046.98528444 -69.35895303 814483.73479402 -601791.80723607 2333632.36728148
1.7100000000000013 244549.07015045 150009.19630063 -64.88100431 920403.06210354 138628.37302629 2144654.47955881 278994.82578077 -66849.78589173 -64.88100431 748848.30927002 -552798.18400652 2144654.47955881
1.7400000000000013 237081.91797772 139585.61927280 -59.56851421 854887.90983318 129135.69162716 1991931.62547841 266344.16984268 -68940.29395484 -59.56851421 695809.76144022 -513184.31495466 1991931.62547841
1.7700000000000014 233086.87519273 132550.77072549 -53.99683052 810476.78944203 122715.78428593 1888441.83267988 258544.85888586 -71089.76122287 -53.99683052 659866.79703597 -486320.47058156 1888441.83267988
1.8000000000000014 232766.08873775 129418.52480140 -48.75269724 790429.56525823 119833.26810450 1841779.66771195 256103.19627496 -73077.76327850 -48.75269724 643653.02213287 -474183.18915599 1841779.66771195
1.8300000000000014 235964.38983591 130301.28945668 -44.36406227 795498.46705169 120590.20470550 1853682.82963934 258988.94554369 -74715.09479934 -44.36406227 647772.51196769 -477232.20898382 1853682.82963934
1.8600000000000014 242206.51680357 134918.62007489 -41.24722158 823975.95304117 124733.46915459 1920147.51507776 266667.74164266 -75863.99931610 -41.24722158 670838.86581019 -494439.10204993 1920147.51507776
1.8900000000000015 250763.34917624 142643.27388448 -39.66481156 871977.92981801 131696.07904167 2032094.00786489 278180.49092994 -76452.43842120 -39.66481156 709704.69776536 -523458.31667327 2032094.00786489
1.9200000000000015 260738.07958610 152578.55135839 -39.70727505 933922.56383433 140666.79300955 2176488.43317087 292258.99251802 -76480.33585975 -39.70727505 759849.42121520 -560916.53476557 2176488.43317087
1.9500000000000015 271160.85870277 163657.76012899 -41.27951496 1003149.62067581 150679.80967034 2337791.11672086 307463.19396211 -76016.17000009 -41.27951496 815880.61453037 -602787.18411878 2337791.11672086
1.9800000000000015 281080.95333485 174755.25354228 -44.11385808 1072614.01575809 160714.96411978 2499576.98238723 322324.87299318 -75183.62333773 -44.11385808 872095.28510553 -644810.00317103 2499576.98238723
2.0100000000000016 289647.85592683 184797.85759863 -47.80598341 1135584.23775524 169798.40039992 2646165.12126258 335483.78133874 -74140.14482527 -47.80598341 923044.91548270 -682913.71476787 2646165.12126258
2.0400000000000014 296175.83771537 192866.04094573 -51.86477358 1186279.01187813 177094.12092143 2764101.47837420 345804.82868547 -73051.05785881 -51.86477358 964050.38749012 -713601.47986649 2764101.47837420
2.070000000000001 300189.73425692 198275.65391289 -55.76590725 1220383.75034501 181978.09748689 2843359.13253250 352468.25616166 -72064.13730965 -55.76590725 991619.57227924 -734263.67875842 2843359.13253250
2.100000000000001 301451.56645882 200633.12851507 -59.01366981 1235401.78297261 184088.71545374 2878151.75081295 355027.49254602 -71289.40113866 -59.01366981 1003731.35726714 -743390.59919262 2878151.75081295
2.130000000000001 299969.57125163 199860.13153658 -61.19173596 1230813.26789134 183349.72077788 2867298.09640519 353432.97228000 -70788.06368330 -61.19173596 999964.23899104 -740668.57720964 2867298.09640519
2.1600000000000006 295990.00046627 196186.33517051 -62.01140293 1208033.78360102 179964.63542089 2814120.39110787 348021.22446831 -70571.84851791 -62.01140293 981463.09436660 -726954.66620685 2814120.39110787
2.1900000000000004 289973.11337477 190112.62602246 -61.33797513 1170184.93022712 174384.33867725 2725906.01134120 339471.88187874 -70612.02777941 -61.33797513 950754.04781732 -704137.35099449 2725906.01134120
2.22 282553.65953269 182349.43618348 -59.19998230 1121707.60927104 167252.00520846 2613004.67701288 328736.13157552 -70855.08583376 -59.19998230 911432.08407406 -674902.02997415 2613004.67701288
2.25 274486.49330290 173737.38688653 -55.79047939 1067863.09299152 159331.70473452 2487666.48814910 316942.14517169 -71240.37634550 -55.79047939 867757.76330894 -642428.70555735 2487666.48814910
2.28 266579.85843950 165158.88319631 -51.43977170 1014176.78163151 151428.28096411 2362748.25983233 305285.39191163 -71715.45934901 -51.43977170 824207.24394673 -610055.31528045 2362748.25983233
2.3099999999999996 259620.45704181 157449.72755713 -46.58087897 965882.67461796 144306.82345638 2250422.79567762 294913.15576064 -72245.61565739 -46.58087897 785022.52249046 -580941.85561546 2250422.79567762
2.3399999999999994 254296.82437343 151319.54726422 -41.69882141 927423.94648160 138619.59115541 2161019.39678961 286814.08694526 -72815.93095205 -41.69882141 753806.61450323 -557768.90868063 2161019.39678961
2.369999999999999 251129.02726260 147288.41251928 -37.27993555 902056.41651622 134847.32487576 2102103.80649276 281723.67341275 -73426.40284758 -37.27993555 733201.66697597 -542498.75128693 2102103.80649276
2.399999999999999 250413.57758652 145645.20551307 -33.75477574 891589.10532000 133260.06379890 2077876.39628261 280055.85127821 -74082.42634701 -33.75477574 724677.79717738 -536219.60763027 2077876.39628261
2.429999999999999 252190.86803824 146430.62604513 -31.45364068 896280.25605375 133900.49970366 2088931.16733795 281867.96159307 -74783.78429326 -31.45364068 728447.79824394 -539083.89555450 2088931.16733795
2.4599999999999986 256240.91844935 149445.51542046 -30.57041865 914890.90523708 136590.49581554 2132380.54221995 286863.62842474 -75515.75368128 -30.57041865 743509.62897584 -550341.49730224 2132380.54221995
2.4899999999999984 262108.58948366 154282.18665937 -31.14708774 944882.42185781 140959.06499169 2202314.54089469 294432.74143427 -76244.78062801 -31.14708774 767805.87864496 -568459.65719428 2202314.54089469
2.5199999999999982 269155.88805817 160374.74197863 -33.07776508 982731.19904866 146488.08919843 2290532.20913370 303724.02122635 -76919.88605809 -33.07776508 798478.61616616 -591313.17369562 2290532.20913370
2.549999999999998 276635.50882094 167062.48100739 -36.12164092 1024323.78697687 152570.46277062 2387460.24490387 313741.85740645 -77479.83100211 -36.12164092 832189.90473591 -616422.68706816 2387460.24490387
2.579999999999998 283776.23735072 173659.51994853 -39.93838725 1065389.79805272 158574.37766854 2483159.76390012 323455.92594350 -77864.27759709 -39.93838725 865473.36858190 -641215.33303819 2483159.76390012
2.6099999999999977 289869.66250726 179523.55484322 -44.12622908 1101928.58613648 163907.04836559 2568318.98617137 331911.12703150 -78026.48100678 -44.12622908 895080.96102398 -663281.39025683 2568318.98617137
2.6399999999999975 294347.49959098 184116.99341864 -48.26800783 1130588.31159228 168071.62267181 2635135.58825913 338325.48756409 -77944.73840809 -48.26800783 918291.24597342 -680602.07774088 2635135.58825913
2.6699999999999973 296840.27454065 187054.79824901 -51.97518642 1148962.64656774 170711.87015027 2678007.76928767 342165.48735232 -77630.05476161 -51.97518642 933150.79973039 -691727.75770580 2678007.76928767
2.699999999999997 297210.86986087 188134.94007928 -54.92486643 1155779.97097015 171640.72243581 2693975.31291565 343191.31342916 -77128.32961280 -54.92486643 938628.17379470 -695891.53627046 2693975.31291565
2.729999999999997 295559.80053969 187349.24605884 -56.89003001 1150971.45192022 170850.54137910 2682878.75995889 341468.26154615 -76516.41686937 -56.89003001 934669.29498347 -693050.14222636 2682878.75995889
2.7599999999999967 292202.60523300 184874.36207410 -57.75836958 1135617.13272850 168504.87946143 2647234.38712085 337344.35873077 -75892.52855049 -57.75836958 922153.51831414 -683851.63245374 2647234.38712085
2.7899999999999965 287623.80646321 181044.91351242 -57.53723898 1111781.03888617 164913.46416918 2591850.48512886 331398.83002479 -75362.65793686 -57.53723898 902759.34061403 -669536.48296804 2591850.48512886
2.8199999999999963 282414.23444972 176312.21139471 -56.34549355 1082257.02835911 160493.74638029 2523235.46520951 324368.58056620 -75025.45999981 -56.34549355 878757.50014306 -651785.06733599 2523235.46520951
2.849999999999996 277199.87109782 171193.40863417 -54.40103965 1050254.94928102 155723.56772938 2448866.64592532 317061.92873697 -74957.88845764 -54.40103965 852755.58734335 -632529.20587933 2448866.64592532
