# Results for "element" with Id # 198638 for search config "initial" at position: x0: 28.5210526316; y0: -10.9789473684; z0: 167.6667
# time PRESSURE
0.03 1326.3123230135639
0.06 3792.8585972729325
0.09 7123.546378104563
0.12 10977.984575760067
0.15 14983.733901022317
0.18 18770.615328355183
0.21 22003.632284814994
0.24 24411.629711606998
0.27 25809.331054204962
0.30000000000000004 26110.99611198446
0.33000000000000007 25334.66345582594
0.3600000000000001 23596.769788365793
0.3900000000000001 21097.824121164016
0.42000000000000015 18100.66714536757
0.4500000000000002 14903.5730415558
0.4800000000000002 11810.945234326819
0.5100000000000002 9104.549252107201
0.5400000000000003 7018.082540375953
0.5700000000000003 5717.423758255332
0.6000000000000003 5288.204217681396
0.6300000000000003 5731.508912454352
0.6600000000000004 6967.653861925364
0.6900000000000004 8847.228661364943
0.7200000000000004 11167.97354160745
0.7500000000000004 13695.655895279908
0.7800000000000005 16186.89648125856
0.8100000000000005 18411.86115880453
0.8400000000000005 20174.848997277542
0.8700000000000006 21331.047712375457
0.9000000000000006 21798.079666814767
0.9300000000000006 21561.413386881904
0.9600000000000006 20673.269282600395
0.9900000000000007 19245.23420074174
1.0200000000000007 17435.433994783296
1.0500000000000007 15431.642744373457
1.0800000000000007 13432.119476678874
1.1100000000000008 11626.162195272229
1.1400000000000008 10176.336052049239
1.1700000000000008 9204.075676892151
1.2000000000000008 8779.92406595571
1.2300000000000009 8919.129621912347
1.260000000000001 9582.737081613483
1.290000000000001 10683.783727997044
1.320000000000001 12097.737769038973
1.350000000000001 13675.993181688425
1.380000000000001 15261.020284991351
1.410000000000001 16701.69528478824
1.440000000000001 17867.379758789295
1.470000000000001 18659.48492007642
1.500000000000001 19019.525940400672
1.5300000000000011 18933.02104123667
1.5600000000000012 18429.00713304035
1.5900000000000012 17575.3631605922
1.6200000000000012 16470.554496844008
1.6500000000000012 15232.741365127162
1.6800000000000013 13987.435685798484
1.7100000000000013 12854.991318988712
1.7400000000000013 11939.175127806866
1.7700000000000014 11317.897246123322
1.8000000000000014 11036.904077940024
1.8300000000000014 11106.900689762053
1.8600000000000014 11504.202330957247
1.8900000000000015 12174.673140888597
1.9200000000000015 13040.404107797842
1.9500000000000015 14008.358780142307
1.9800000000000015 14980.068233760969
2.0100000000000016 15861.403323631215
2.0400000000000014 16571.48662402456
2.070000000000001 17049.924445200373
2.100000000000001 17261.73000345434
2.130000000000001 17199.551937950673
2.1600000000000006 16883.10030165117
2.1900000000000004 16355.941572791644
2.22 15680.091925839164
2.25 14929.043792732762
2.28 14179.991320495843
2.3099999999999996 13506.068916241911
2.3399999999999994 12969.375142032877
2.369999999999999 12615.435928149127
2.399999999999999 12469.580682057594
2.429999999999999 12535.488478105624
2.4599999999999986 12795.931651053887
2.4899999999999984 13215.527846890538
2.5199999999999982 13745.126730627142
2.549999999999998 14327.318760351263
2.579999999999998 14902.474196637271
2.6099999999999977 15414.697898005172
2.6399999999999975 15817.124307226873
2.6699999999999973 16076.067159484943
2.699999999999997 16173.671664793812
2.729999999999997 16108.878395901227
2.7599999999999967 15896.683445760169
2.7899999999999965 15565.847024156637
2.8199999999999963 15155.351706012196
2.849999999999996 14710.023381462117
2.879999999999996 14275.791448089998
2.9099999999999957 13895.079679813261
2.9399999999999955 13602.781369421737
2.9699999999999953 13423.190845507714
2.999999999999995 13368.14824134064
3.029999999999995 13436.519887887493
3.0599999999999947 13614.994952984933
3.0899999999999945 13880.052077904536
3.1199999999999943 14200.838018652783
3.149999999999994 14542.624189938202
3.179999999999994 14870.467754165149
3.2099999999999937 15152.701652386259
3.2399999999999936 15363.914614599438
3.2699999999999934 15487.149842404391
3.299999999999993 15515.142771291421
3.329999999999993 15450.52334752944
3.3599999999999928 15305.01745735004
3.3899999999999926 15097.778574643931
3.4199999999999924 14853.064362264657
3.449999999999992 14597.527254808889
3.479999999999992 14357.412230671967
3.509999999999992 14155.949508891661
3.5399999999999916 14011.194182385701
3.5699999999999914 13934.505779501531
3.599999999999991 13929.785469958646
3.629999999999991 13993.505186446364
3.659999999999991 14115.481849190804
3.6899999999999906 14280.276949154413
3.7199999999999904 14469.045486533283
3.7499999999999902 14661.622823581758
3.77999999999999 14838.626248609187
3.80999999999999 14983.358392039288
3.8399999999999896 15083.331723897702
3.8699999999999894 15131.281710439354
3.8999999999999893 15125.595129461253
3.929999999999989 15070.143772091049
3.959999999999989 14973.573876812843
3.9899999999999887 14848.154805045555
4.019999999999989 14708.328460079269
4.049999999999989 14569.12432493339
4.079999999999989 14444.608799037836
4.10999999999999 14346.523096664736
4.13999999999999 14283.23700477139
4.16999999999999 14259.106064471112
4.19999999999999 14274.273017607356
4.229999999999991 14324.907751616573
4.259999999999991 14403.83415500778
4.289999999999991 14501.458100359527
4.319999999999991 14606.8838875375
4.349999999999992 14709.094521722494
4.379999999999992 14798.072566043378
4.409999999999992 14865.750994402806
4.439999999999992 14906.708121212314
4.469999999999993 14918.551775509823
4.499999999999993 14901.972620939598
4.529999999999993 14860.481754287071
4.559999999999993 14799.878724778891
4.589999999999994 14727.520724124093
4.619999999999994 14651.479458940654
4.649999999999994 14579.678647239267
4.679999999999994 14519.101120706662
4.709999999999995 14475.141446241832
4.739999999999995 14451.160802520122
4.769999999999995 14448.276715712804
4.799999999999995 14465.393919948128
4.829999999999996 14499.457677446318
4.859999999999996 14545.889766594752
4.889999999999996 14599.150150200185
4.919999999999996 14653.360338867215
4.949999999999997 14702.921135453198
4.979999999999997 14743.060539665315
5.009999999999997 14770.261781986248
5.039999999999997 14782.536719069434
5.069999999999998 14779.525729118983
5.099999999999998 14762.426363343608
5.129999999999998 14733.768059515825
5.159999999999998 14697.067411452632
5.189999999999999 14656.406296680872
5.219999999999999 14615.980865979534
5.249999999999999 14579.669287730867
5.279999999999999 14550.661044186249
5.31 14531.18125705098
5.34 14522.331102068863
5.37 14524.052613262062
5.4 14535.213211021088
5.430000000000001 14553.792103497794
5.460000000000001 14577.14376249476
5.490000000000001 14602.306841213283
5.520000000000001 14626.323607935727
5.550000000000002 14646.536775898257
5.580000000000002 14660.834450109363
5.610000000000002 14667.823577737698
5.640000000000002 14666.918950959149
5.670000000000003 14658.344680348471
5.700000000000003 14643.05343985833
5.730000000000003 14622.578602846617
5.760000000000003 14598.838403327632
5.790000000000004 14573.91618845289
5.820000000000004 14549.83973770762
5.850000000000004 14528.382070700738
5.880000000000004 14510.901931477227
5.910000000000005 14498.23684643949
5.940000000000005 14490.656103439092
5.970000000000005 14487.874310866819
6.000000000000005 14489.11900829873
6.030000000000006 14493.241963159844
6.060000000000006 14498.859789300004
6.090000000000006 14504.508232293363
6.120000000000006 14508.793176440418
6.150000000000007 14510.523742034702
6.180000000000007 14508.815654595126
6.210000000000007 14503.156528715088
6.240000000000007 14493.429774716229
6.270000000000008 14479.898146803404
6.300000000000008 14463.15053687914
6.330000000000008 14444.02047380905
6.360000000000008 14423.486471203212
6.390000000000009 14402.565617224325
6.420000000000009 14382.21108955066
6.450000000000009 14363.22292803929
6.480000000000009 14346.181236148188
6.51000000000001 14331.40567801799
6.54000000000001 14318.943348648138
6.57000000000001 14308.584204105007
6.60000000000001 14299.900251575067
6.6300000000000106 14292.303387585713
6.660000000000011 14285.114493512054
6.690000000000011 14277.636279841787
6.720000000000011 14269.222265390412
6.7500000000000115 14259.336527070387
6.780000000000012 14247.599095982097
6.810000000000012 14233.81311541399
6.840000000000012 14217.973197457784
6.8700000000000125 14200.254918718203
6.900000000000013 14180.987634474488
6.930000000000013 14160.614798821252
6.960000000000013 14139.645689294994
6.9900000000000135 14118.604197043154
7.020000000000014 14097.980251311663
7.050000000000014 14078.187114027054
7.080000000000014 14059.52916635956
7.1100000000000145 14042.181890454849
7.140000000000015 14026.185553377101
7.170000000000015 14011.452586593648
7.200000000000015 13997.786409147455
7.2300000000000155 13984.909003520603
7.260000000000016 13972.495194272073
7.290000000000016 13960.20887005649
7.320000000000016 13947.737984175443
7.3500000000000165 13934.825416082507
7.380000000000017 13921.293108706292
7.410000000000017 13907.057451611696
7.440000000000017 13892.135113566186
7.4700000000000175 13876.63836666051
7.500000000000018 13860.761806757642
7.530000000000018 13844.761889048106
7.560000000000018 13828.93144283858
7.5900000000000185 13813.571418505913
7.620000000000019 13798.96275645537
7.650000000000019 13785.3410606446
7.680000000000019 13772.87751565158
7.7100000000000195 13761.667130378213
7.74000000000002 13751.724162349223
7.77000000000002 13742.985440788434
7.80000000000002 13735.32122138784
7.8300000000000205 13728.55220900675
7.860000000000021 13722.470318628264
7.890000000000021 13716.86106165516
7.920000000000021 13711.525673448537
7.9500000000000215 13706.301308121441
7.980000000000022 13701.076314578047
8.010000000000021 13695.799774737254
8.04000000000002 13690.485298192212
8.07000000000002 13685.208200130728
8.10000000000002 13680.096043305832
8.130000000000019 13675.313544065195
8.160000000000018 13671.045025142343
8.190000000000017 13667.474630451597
8.220000000000017 13664.767441720578
8.250000000000016 13663.053512433953
8.280000000000015 13662.415110764317
8.310000000000015 13662.879370086719
8.340000000000014 13664.416751148186
8.370000000000013 13666.945251961053
8.400000000000013 13670.339441005077
8.430000000000012 13674.443422500612
8.460000000000012 13679.086419459514
8.49000000000001 13684.098918212652
8.52000000000001 13689.328004905503
8.55000000000001 13694.650190446111
8.580000000000009 13699.981008664725
8.610000000000008 13705.280383348338
8.640000000000008 13710.552225871514
8.670000000000007 13715.839772700472
8.700000000000006 13721.21643443311
8.730000000000006 13726.773766678074
8.760000000000005 13732.607899662245
8.790000000000004 13738.805895754622
8.820000000000004 13745.433765195547
8.850000000000003 13752.527380425676
8.880000000000003 13760.086876132813
8.910000000000002 13768.07485628143
8.940000000000001 13776.418881275955
8.97 13785.017924903726
9.0 13793.751991561625
9.03 13802.493312174174
9.059999999999999 13811.117118362268
9.089999999999998 13819.512970448639
9.119999999999997 13827.593211120802
9.149999999999997 13835.298435674162
9.179999999999996 13842.600311299953
9.209999999999996 13849.500571400189
9.239999999999995 13856.026831934454
9.269999999999994 13862.22524533125
9.299999999999994 13868.152708631296
9.329999999999993 13873.866801520919
9.359999999999992 13879.416456296722
9.389999999999992 13884.833106193018
9.419999999999991 13890.124200203183
9.44999999999999 13895.269269476332
9.47999999999999 13900.220401178905
9.50999999999999 13904.905304631866
9.539999999999988 13909.233382892293
9.569999999999988 13913.104258819874
9.599999999999987 13916.41744599395
9.629999999999987 13919.081440447986
9.659999999999986 13921.020686780143
9.689999999999985 13922.17971063035
9.719999999999985 13922.527351638473
9.749999999999984 13922.059436921692
9.779999999999983 13920.798875635326
9.809999999999983 13918.790540020927
9.839999999999982 13916.095172852945
9.869999999999981 13912.782980787691
9.89999999999998 13908.927072441169
9.92999999999998 13904.596464295675
9.95999999999998 13899.848325913452
9.989999999999979 13894.724510934971
10.019999999999978 12723.155393031424
10.049999999999978 10017.19271776991
10.079999999999977 6197.5229443025555
10.109999999999976 1790.813538994988
10.139999999999976 -2637.9696067408477
10.169999999999975 -6556.278644883648
10.199999999999974 -9526.790277254338
10.229999999999974 -11254.374812370119
10.259999999999973 -11612.516541210314
10.289999999999973 -10647.552698837584
10.319999999999972 -8561.862245782246
10.349999999999971 -5679.354052052004
10.37999999999997 -2398.485614359323
10.40999999999997 860.7859853406096
10.43999999999997 3709.253030308886
10.469999999999969 5833.4797550739495
10.499999999999968 7028.470547805859
10.529999999999967 7214.793086665808
10.559999999999967 6439.152814657866
10.589999999999966 4859.637899456114
10.619999999999965 2718.5977594318283
10.649999999999965 307.4641829481543
10.679999999999964 -2071.607882758702
10.709999999999964 -4142.416161092701
10.739999999999963 -5685.458714078715
10.769999999999962 -6559.578309644824
10.799999999999962 -6712.677457581469
10.829999999999961 -6181.114058644855
10.85999999999996 -5078.767211435028
10.88999999999996 -3577.835992851212
10.919999999999959 -1884.2766827694163
10.949999999999958 -211.14987842090324
10.979999999999958 1246.8558033517452
11.009999999999957 2334.82285535269
11.039999999999957 2952.7254280083735
11.069999999999956 3062.958117807302
11.099999999999955 2689.9523603878483
11.129999999999955 1912.5342664894667
11.159999999999954 850.4693110556842
11.189999999999953 -352.74439267519585
11.219999999999953 -1548.4969231162577
11.249999999999952 -2600.7856986569795
11.279999999999951 -3401.01623719673
11.30999999999995 -3878.3881647175585
11.33999999999995 -4005.0207261687656
11.36999999999995 -3795.6685371053945
11.399999999999949 -3302.5210561057947
11.429999999999948 -2606.1029874147466
11.459999999999948 -1803.6683739731884
11.489999999999947 -996.6438872520584
11.519999999999946 -278.6497432377522
11.549999999999946 274.56857159041897
11.579999999999945 612.3044751161528
11.609999999999944 712.5715972593099
11.639999999999944 582.1870720671541
11.669999999999943 253.55180036493567
11.699999999999942 -221.21280724683348
11.729999999999942 -777.8720162530176
11.759999999999941 -1348.4008167332534
11.78999999999994 -1869.0045451448095
11.81999999999994 -2286.9597056003663
11.84999999999994 -2565.5982385336583
11.879999999999939 -2687.0350640742568
11.909999999999938 -2652.5339130444177
11.939999999999937 -2480.6745393913434
11.969999999999937 -2203.738618434993
11.999999999999936 -1862.8814008322288
12.029999999999935 -1502.743602735056
12.059999999999935 -1166.158051261106
12.089999999999934 -889.5489083351384
12.119999999999933 -699.4699043843189
12.149999999999933 -610.5685054856461
12.179999999999932 -625.0546548131573
12.209999999999932 -733.6000316493183
12.239999999999931 -917.4208844535513
12.26999999999993 -1151.2039046982704
12.29999999999993 -1406.4805725255696
12.329999999999929 -1655.0345567297973
12.359999999999928 -1871.9550455264953
12.389999999999928 -2038.0396918535205
12.419999999999927 -2141.3428385612397
12.449999999999926 -2177.7897322034432
12.479999999999926 -2150.877678468683
12.509999999999925 -2070.5962114048
12.539999999999925 -1951.7522886901381
12.569999999999924 -1811.9398003930878
12.599999999999923 -1669.4125903940605
12.629999999999923 -1541.0977183891464
12.659999999999922 -1440.948179934036
12.689999999999921 -1378.765697284085
12.71999999999992 -1359.5751419087762
12.74999999999992 -1383.558671851468
12.77999999999992 -1446.4946715430085
12.809999999999919 -1540.598522120832
12.839999999999918 -1655.6521615441684
12.869999999999918 -1780.2591527078769
12.899999999999917 -1903.0915139107558
12.929999999999916 -2014.0097455678317
12.959999999999916 -2104.958005518045
12.989999999999915 -2170.565201601324
13.019999999999914 -2208.427087265719
13.049999999999914 -2219.076930294219
13.079999999999913 -2205.6791662743885
13.109999999999912 -2173.5068090271975
13.139999999999912 -2129.2723511034137
13.169999999999911 -2080.384713767134
13.19999999999991 -2034.2065328161834
13.22999999999991 -1997.3852316202394
13.25999999999991 -1975.309113156722
13.289999999999909 -1971.7301795006078
13.319999999999908 -1988.5598989675925
13.349999999999907 -2025.845906317325
13.379999999999907 -2081.921735941881
13.409999999999906 -2153.672424704677
13.439999999999905 -2236.8731452095317
13.469999999999905 -2326.595146978624
13.499999999999904 -2417.6390252400092
13.529999999999903 -2504.9350991935353
13.559999999999903 -2583.8949403675724
13.589999999999902 -2650.70426381952
13.619999999999902 -2702.5382881371747
13.6499999999999 -2737.694949206452
13.6799999999999 -2755.663663844314
13.7099999999999 -2757.122507731387
13.739999999999899 -2743.847495214526
13.769999999999898 -2718.5680026716363
13.799999999999898 -2684.713282456252
13.829999999999897 -2646.057234010425
13.859999999999896 -2606.3605904892497
13.889999999999896 -2569.0071562327275
13.919999999999895 -2536.6303329409902
13.949999999999894 -2510.8433733441625
13.979999999999894 -2492.0013769943816
14.009999999999893 -2479.130317172692
14.039999999999893 -2470.021838948481
14.069999999999892 -2461.5339336934317
14.099999999999891 -2450.0673485364814
14.12999999999989 -2432.118221595599
14.15999999999989 -2404.7782485812413
14.18999999999989 -2366.1056533854553
14.219999999999889 -2315.3662313042055
14.249999999999888 -2253.1176896232487
14.279999999999887 -2181.140275603932
14.309999999999887 -2102.218506074461
14.339999999999886 -2019.8385881703202
14.369999999999886 -1937.8276065076175
14.399999999999885 -1859.9826607626
14.429999999999884 -1789.7113114820975
14.459999999999884 -1729.7028301658306
14.489999999999883 -1681.6877073959308
14.519999999999882 -1646.310715795642
14.549999999999882 -1623.134929314734
14.579999999999881 -1610.7702338472263
14.60999999999988 -1607.1160691619152
14.63999999999988 -1609.629426385151
14.66999999999988 -1615.6254986278623
14.699999999999878 -1622.57110029962
14.729999999999878 -1628.3652370255804
14.759999999999877 -1631.5322422062284
14.789999999999877 -1631.3401041483044
14.819999999999876 -1627.8439708581382
14.849999999999875 -1621.8104887511759
14.879999999999875 -1614.5727611524833
14.909999999999874 -1607.7991474786127
14.939999999999873 -1603.2308726955848
14.969999999999873 -1602.4681442693256
14.999999999999872 -1606.7850242959535
15.029999999999871 -1616.999028048416
15.05999999999987 -1633.3676893424158
15.08999999999987 -1655.5703625290275
15.11999999999987 -1682.747298774224
15.149999999999869 -1713.5780943319762
15.179999999999868 -1746.435762968185
15.209999999999868 -1779.6165067314646
15.239999999999867 -1811.5613879442487
15.269999999999866 -1840.9787891203705
15.299999999999866 -1866.9261330494146
15.329999999999865 -1888.8698318184288
15.359999999999864 -1906.731171130132
15.389999999999864 -1920.9003173147978
15.419999999999863 -1932.2113881070031
15.449999999999863 -1941.8053375055586
15.479999999999862 -1950.931181148349
15.509999999999861 -1960.759198708789
15.53999999999986 -1972.2481260486322
15.56999999999986 -1986.007280829363
15.59999999999986 -2002.2202747935123
15.629999999999859 -2020.6302443550596
15.659999999999858 -2040.5526987321193
15.689999999999857 -2060.919479475026
15.719999999999857 -2080.372343327035
15.749999999999856 -2097.385712944439
15.779999999999855 -2110.3834463844005
15.809999999999855 -2117.929909939899
15.839999999999854 -2118.826174942413
15.869999999999854 -2112.192237626052
15.899999999999853 -2097.5251820691556
15.929999999999852 -2074.713700430079
15.959999999999852 -2044.0194665586785
15.989999999999851 -2006.0122102690882
16.01999999999985 -1961.4710391840022
16.04999999999985 -1911.3007133851108
16.079999999999853 -1856.4255217286614
