# Results for "element" with Id # 2048611 for search config "initial" at position: x0: 18.9526315789; y0: -20.5473684211; z0: 167.6667
# time PRESSURE
0.03 1331.7647722225702
0.06 3808.4797831268424
0.09 7152.946531006963
0.12 11023.396284310369
0.15 15045.859011554014
0.18 18848.598643669175
0.21 22095.16380449787
0.24 24513.171271431034
0.27 25916.45505670364
0.30000000000000004 26218.81303831561
0.33000000000000007 25438.30273360452
0.3600000000000001 23691.867878409867
0.3900000000000001 21180.9681912537
0.42000000000000015 18169.742271604326
0.4500000000000002 14957.968754490239
0.4800000000000002 11851.59289423354
0.5100000000000002 9133.783993448524
0.5400000000000003 7039.348489982728
0.5700000000000003 5734.863113068929
0.6000000000000003 5306.185064888236
0.6300000000000003 5754.149299675381
0.6600000000000004 6998.394573716745
0.6900000000000004 8888.493396054728
0.7200000000000004 11220.943549470327
0.7500000000000004 13760.174538002237
0.7800000000000005 16261.51105615449
0.8100000000000005 18494.001682636022
0.8400000000000005 20261.133415286888
0.8700000000000006 21417.688550085568
0.9000000000000006 21881.348641619203
0.9300000000000006 21638.104903102812
0.9600000000000006 20741.09368736078
0.9900000000000007 19303.0804268745
1.0200000000000007 17483.458826826147
1.0500000000000007 15471.17708480163
1.0800000000000007 13465.414605435682
1.1100000000000008 11656.025406399436
1.1400000000000008 10205.718835438081
1.1700000000000008 9235.677603293465
1.2000000000000008 8815.865989726428
1.2300000000000009 8960.732850873354
1.260000000000001 9630.428805844278
1.290000000000001 10737.129434815857
1.320000000000001 12155.58728056689
1.350000000000001 13736.711837820985
1.380000000000001 15322.766122423021
1.410000000000001 16762.697266640564
1.440000000000001 17926.17344425406
1.470000000000001 18715.07158527695
1.500000000000001 19071.43654591662
1.5300000000000011 18981.28644992407
1.5600000000000012 18474.052562146182
1.5900000000000012 17617.858481522533
1.6200000000000012 16511.255340723208
1.6500000000000012 15272.352558712326
1.6800000000000013 14026.518672781922
1.7100000000000013 12893.924334706411
1.7400000000000013 11978.16225913443
1.7700000000000014 11357.012480718966
1.8000000000000014 11076.151784216338
1.8300000000000014 11146.272980571888
1.8600000000000014 11543.718806227547
1.8900000000000015 12214.394297438306
1.9200000000000015 13080.418106878256
1.9500000000000015 14048.747985419532
1.9800000000000015 15020.86637699349
2.0100000000000016 15902.555765025729
2.0400000000000014 16612.824915881825
2.070000000000001 17091.162926011562
2.100000000000001 17302.486719215274
2.130000000000001 17239.391397605486
2.1600000000000006 16921.590392448423
2.1900000000000004 16392.714688821627
2.22 15714.899446120127
2.25 14961.794071113993
2.28 14210.765028308635
2.3099999999999996 13535.109255807116
2.3399999999999994 12997.054981952911
2.369999999999999 12642.20724698298
2.399999999999999 12495.914340651696
2.429999999999999 12561.812836158273
2.4599999999999986 12822.578566451459
2.4899999999999984 13242.692541105855
2.5199999999999982 13772.84578250692
2.549999999999998 14355.468211465246
2.579999999999998 14930.786674179388
2.6099999999999977 15442.79576170058
2.6399999999999975 15844.563958119763
2.6699999999999973 16102.388713020706
2.699999999999997 16198.447965185158
2.729999999999997 16131.75771849804
2.7599999999999967 15917.421140162409
2.7899999999999965 15584.323115145859
2.8199999999999963 15171.573172820554
2.849999999999996 14724.111387604918
2.879999999999996 14287.95592180957
2.9099999999999957 13905.584707488417
2.9399999999999955 13611.90602319901
2.9699999999999953 13431.190268151091
2.999999999999995 13375.219478279529
3.029999999999995 13442.776187723677
3.0599999999999947 13620.451153804186
3.0899999999999945 13884.621925128537
3.1199999999999943 14204.342903670506
3.149999999999994 14544.811682733483
3.179999999999994 14871.037006875498
3.2099999999999937 15151.332398318886
3.2399999999999936 15360.296246678292
3.2699999999999934 15481.007391236728
3.299999999999993 15506.257159599632
3.329999999999993 15438.744016343437
3.3599999999999928 15290.266539474469
3.3899999999999926 15080.046834603749
3.4199999999999924 14832.399950090145
3.449999999999992 14574.018860643999
3.479999999999992 14331.168710856968
3.509999999999992 14127.078691910818
3.5399999999999916 13979.783127091543
3.5699999999999914 13900.604256365907
3.599999999999991 13893.394492753268
3.629999999999991 13954.571482431951
3.659999999999991 14073.898369838553
3.6899999999999906 14235.8892089935
3.7199999999999904 14421.662545728897
3.7499999999999902 14611.031752526476
3.77999999999999 14784.608236757245
3.80999999999999 14925.70487416381
3.8399999999999896 15021.858536762316
3.8699999999999894 15065.839643275862
3.8999999999999893 15056.076073301545
3.929999999999989 14996.482024919242
3.959999999999989 14895.743065791987
3.9899999999999887 14766.160986230096
4.019999999999989 14622.200435823237
4.049999999999989 14478.90192482387
4.079999999999989 14350.330036840745
4.10999999999999 14248.2115917317
4.13999999999999 14180.891423499468
4.16999999999999 14152.692965977749
4.19999999999999 14163.72325352561
4.229999999999991 14210.116639170696
4.259999999999991 14284.665485327763
4.289999999999991 14377.751283718031
4.319999999999991 14478.46355027702
4.349999999999992 14575.781167901976
4.379999999999992 14659.693041531651
4.409999999999992 14722.147758619569
4.439999999999992 14757.746535959466
4.469999999999993 14764.124804755647
4.499999999999993 14742.002372533416
4.529999999999993 14694.917809643248
4.559999999999993 14628.69374684599
4.589999999999994 14550.704435895374
4.619999999999994 14469.03199821746
4.649999999999994 14391.603935246061
4.679999999999994 14325.400530203944
4.709999999999995 14275.808427281028
4.739999999999995 14246.177110185097
4.769999999999995 14237.61097147971
4.799999999999995 14249.002450719883
4.829999999999996 14277.28704230899
4.859999999999996 14317.879951299385
4.889999999999996 14365.238733290134
4.919999999999996 14413.486460027227
4.949999999999997 14457.028806588733
4.979999999999997 14491.102008576314
5.009999999999997 14512.200158149528
5.039999999999997 14518.347000381462
5.069999999999998 14509.194237483458
5.099999999999998 14485.948298175645
5.129999999999998 14451.144464443549
5.159999999999998 14408.302036138977
5.189999999999999 14361.502546733282
5.219999999999999 14314.939846439493
5.249999999999999 14272.488637412302
5.279999999999999 14237.334442639967
5.31 14211.698944086706
5.34 14196.682095755834
5.37 14192.227922295806
5.4 14197.209506089326
5.430000000000001 14209.61639220997
5.460000000000001 14226.819158032964
5.490000000000001 14245.877009589629
5.520000000000001 14263.856264709015
5.550000000000002 14278.126215670465
5.580000000000002 14286.602327096496
5.610000000000002 14287.918200980646
5.640000000000002 14281.513729394637
5.670000000000003 14267.636076494273
5.700000000000003 14247.258752779391
5.730000000000003 14221.933420274645
5.760000000000003 14193.593531403385
5.790000000000004 14164.334644196037
5.820000000000004 14136.194742691549
5.850000000000004 14110.95629161559
5.880000000000004 14089.987960051103
5.910000000000005 14074.13844571344
5.940000000000005 14063.689696779657
5.970000000000005 14058.37065191836
6.000000000000005 14057.424917794273
6.030000000000006 14059.722160453764
6.060000000000006 14063.898459070346
6.090000000000006 14068.510125815228
6.120000000000006 14072.184272238814
6.150000000000007 14073.751250722991
6.180000000000007 14072.347662535765
6.210000000000007 14067.481263382197
6.240000000000007 14059.053924318827
6.270000000000008 14047.344667271354
6.300000000000008 14032.956422845471
6.330000000000008 14016.734530366775
6.360000000000008 13999.667030962348
6.390000000000009 13982.778553977758
6.420000000000009 13967.028159985728
6.450000000000009 13953.220566712007
6.480000000000009 13941.939849906428
6.51000000000001 13933.509045591223
6.54000000000001 13927.977795355173
6.57000000000001 13925.137811705858
6.60000000000001 13924.561438760302
6.6300000000000106 13925.65918483786
6.660000000000011 13927.748608733014
6.690000000000011 13930.12611642441
6.720000000000011 13932.13521758532
6.7500000000000115 13933.226202845013
6.780000000000012 13933.001769085045
6.810000000000012 13931.24477030332
6.840000000000012 13927.927021503492
6.8700000000000125 13923.198992770682
6.900000000000013 13917.362871739775
6.930000000000013 13910.83333491192
6.960000000000013 13904.08961447011
6.9900000000000135 13897.624611404262
7.020000000000014 13891.896373915293
7.050000000000014 13887.285375035215
7.080000000000014 13884.062028639091
7.1100000000000145 13882.366310686572
7.140000000000015 13882.201390549071
7.170000000000015 13883.44128833012
7.200000000000015 13885.84998899705
7.2300000000000155 13889.109555330959
7.260000000000016 13892.854777933586
7.290000000000016 13896.709388579442
7.320000000000016 13900.321165597632
7.3500000000000165 13903.39301273034
7.380000000000017 13905.707215948703
7.410000000000017 13907.141027501892
7.440000000000017 13907.67274222137
7.4700000000000175 13907.377326813801
7.500000000000018 13906.413679789923
7.530000000000018 13905.005320033724
7.560000000000018 13903.416014954943
7.5900000000000185 13901.92185843607
7.620000000000019 13900.782642911532
7.650000000000019 13900.21552187724
7.680000000000019 13900.375228691817
7.7100000000000195 13901.341837669375
7.74000000000002 13903.115727686152
7.77000000000002 13905.620092751009
7.80000000000002 13908.711737884738
7.8300000000000205 13912.198082307135
7.860000000000021 13915.85814663028
7.890000000000021 13919.465201766987
7.920000000000021 13922.80923098953
7.9500000000000215 13925.717359124872
7.980000000000022 13928.068921726575
8.010000000000021 13929.804876137476
8.04000000000002 13930.932091324416
8.07000000000002 13931.520458387358
8.10000000000002 13931.693085341514
8.130000000000019 13931.611196247884
8.160000000000018 13931.45686780787
8.190000000000017 13931.4137132236
8.220000000000017 13931.648137173856
8.250000000000016 13932.29336784189
8.280000000000015 13933.436748344335
8.310000000000015 13935.112273114177
8.340000000000014 13937.298978353063
8.370000000000013 13939.92523526558
8.400000000000013 13942.87793495071
8.430000000000012 13946.015632131266
8.460000000000012 13949.184321712894
8.49000000000001 13952.233595894952
8.52000000000001 13955.031921499123
8.55000000000001 13957.47926358448
8.580000000000009 13959.516442832457
8.610000000000008 13961.130409758845
8.640000000000008 13962.353310687431
8.670000000000007 13963.257350697277
8.700000000000006 13963.945257400055
8.730000000000006 13964.537839641114
8.760000000000005 13965.160018260449
8.790000000000004 13965.926819296246
8.820000000000004 13966.930867690107
8.850000000000003 13968.232947724076
8.880000000000003 13969.856262562083
8.910000000000002 13971.784673847287
8.940000000000001 13973.9652060241
8.97 13976.314621109792
9.0 13978.729095005596
9.03 13981.095814663784
9.059999999999999 13983.30367018925
9.089999999999998 13985.25587053712
9.119999999999997 13986.878924110455
9.149999999999997 13988.12825644295
9.179999999999996 13988.991641157205
9.209999999999996 13989.488477487012
9.239999999999995 13989.665682452733
9.269999999999994 13989.590738381477
9.299999999999994 13989.34387387786
9.329999999999993 13989.008101951034
9.359999999999992 13988.660264559723
9.389999999999992 13988.361494912422
9.419999999999991 13988.150404341228
9.44999999999999 13988.03812244387
9.47999999999999 13988.008824934348
9.50999999999999 13988.02115031991
9.539999999999988 13988.012925625815
9.569999999999988 13987.909567155184
9.599999999999987 13987.633002504952
9.629999999999987 13987.110766165371
9.659999999999986 13986.282653825323
9.689999999999985 13985.104366985055
9.719999999999985 13983.551225839521
9.749999999999984 13981.618349481949
9.779999999999983 13979.320040488636
9.809999999999983 13976.689561807458
9.839999999999982 13973.77363706345
9.869999999999981 13970.62297546376
9.89999999999998 13967.291053214492
9.92999999999998 13963.831948789384
9.95999999999998 13960.29088640327
9.989999999999979 13956.700479941597
10.019999999999978 12780.1474061672
10.049999999999978 10060.847379120623
10.079999999999977 6222.911067682829
10.109999999999976 1797.48881267618
10.139999999999976 -2645.984834443121
10.169999999999975 -6571.720333390617
10.199999999999974 -9541.207516311024
10.229999999999974 -11260.28707379715
10.259999999999973 -11604.91948181522
10.289999999999973 -10624.353853963787
10.319999999999972 -8523.300728963553
10.349999999999971 -5626.869506381966
10.37999999999997 -2333.629782676601
10.40999999999997 936.9440939951346
10.43999999999997 3796.103202852903
10.469999999999969 5930.419729309407
10.499999999999968 7134.398385712003
10.529999999999967 7327.881196698933
10.559999999999967 6557.048320324452
10.589999999999966 4980.004971635476
10.619999999999965 2839.7609498850184
10.649999999999965 428.88178424800793
10.679999999999964 -1949.2139825351587
10.709999999999964 -4017.29587039309
10.739999999999963 -5555.322087910779
10.769999999999962 -6422.159270817836
10.799999999999962 -6566.202421045833
10.829999999999961 -6024.577336340671
10.85999999999996 -4911.999737282858
10.88999999999996 -3401.415580782542
10.919999999999959 -1699.3516477320043
10.949999999999958 -19.23649238891731
10.979999999999958 1444.0675646579177
11.009999999999957 2535.6468492949302
11.039999999999957 3155.641360776249
11.069999999999956 3266.7566794382656
11.099999999999955 2893.8478221120386
11.129999999999955 2116.224663826691
11.159999999999954 1054.127161236338
11.189999999999953 -148.55629510593047
11.219999999999953 -1342.9743534234815
11.249999999999952 -2393.068348956422
11.279999999999951 -3190.377176893141
11.30999999999995 -3664.3949497702574
11.33999999999995 -3787.6459439940545
11.36999999999995 -3575.337312624767
11.399999999999949 -3080.097778224107
11.429999999999948 -2382.827822166381
11.459999999999948 -1581.059736316709
11.489999999999947 -776.3809758829981
11.519999999999946 -62.45215430484462
11.549999999999946 485.0504791528862
11.579999999999945 815.5794282317361
11.609999999999944 907.3706205926538
11.639999999999944 767.4966517348198
11.669999999999943 428.61910288939686
11.699999999999942 -56.90181027037684
11.729999999999942 -624.6372504935351
11.759999999999941 -1206.427401261936
11.78999999999994 -1738.405180720673
11.81999999999994 -2167.8334057509696
11.84999999999994 -2458.081409898769
11.879999999999939 -2591.3380316808475
11.909999999999938 -2568.9573478473094
11.939999999999937 -2409.603879035499
11.969999999999937 -2145.6177750036513
11.999999999999936 -1818.17014210883
12.029999999999935 -1471.863333871792
12.059999999999935 -1149.4339242910826
12.089999999999934 -887.1568619597525
12.119999999999933 -711.3954774898966
12.149999999999933 -636.5824009680449
12.179999999999932 -664.7068378730465
12.209999999999932 -786.2299717188041
12.239999999999931 -982.1813824842036
12.26999999999993 -1227.094616589738
12.29999999999993 -1492.3868816909405
12.329999999999929 -1749.7688306930795
12.359999999999928 -1974.2961866720393
12.389999999999928 -2146.7675640230946
12.419999999999927 -2255.264159812884
12.449999999999926 -2295.7524183155087
12.479999999999926 -2271.774391149217
12.509999999999925 -2193.35925898782
12.539999999999925 -2075.3440795260462
12.569999999999924 -1935.3413879418508
12.599999999999923 -1791.6142949804573
12.629999999999923 -1661.0960478574907
12.659999999999922 -1557.7503956708288
12.689999999999921 -1491.4034246575159
12.71999999999992 -1467.1263732313519
12.74999999999992 -1485.1773416953574
12.77999999999992 -1541.4472112439908
12.809999999999919 -1628.30487319421
12.839999999999918 -1735.7234851757498
12.869999999999918 -1852.5271751158552
12.899999999999917 -1967.6248483378563
12.929999999999916 -2071.113879682775
12.959999999999916 -2155.157784234939
12.989999999999915 -2214.5731084731133
13.019999999999914 -2247.0989931608824
13.049999999999914 -2253.355944986144
13.079999999999913 -2236.529897569752
13.109999999999912 -2201.8418594373875
13.139999999999912 -2155.8744232483978
13.169999999999911 -2105.8302824290863
13.19999999999991 -2058.797776118846
13.22999999999991 -2021.0934228688059
13.25999999999991 -1997.7331521140243
13.289999999999909 -1992.0705917930256
13.319999999999908 -2005.6077039821216
13.349999999999907 -2037.9842502223162
13.379999999999907 -2087.1470819901488
13.409999999999906 -2149.6470356584064
13.439999999999905 -2221.0126669064343
13.469999999999905 -2296.20182244121
13.499999999999904 -2370.082558473926
13.529999999999903 -2437.8858785145876
13.559999999999903 -2495.6008394640667
13.589999999999902 -2540.286728658614
13.619999999999902 -2570.2684715377573
13.6499999999999 -2585.20768318886
13.6799999999999 -2586.0479165138713
13.7099999999999 -2574.8308891968904
13.739999999999899 -2554.3993004813865
13.769999999999898 -2528.060570059795
13.799999999999898 -2499.2194584954973
13.829999999999897 -2471.028264784384
13.859999999999896 -2446.1024251934764
13.889999999999896 -2426.296850853903
13.919999999999895 -2412.5266933331786
13.949999999999894 -2404.7209692749207
13.979999999999894 -2401.8316116639467
14.009999999999893 -2401.950315027292
14.039999999999893 -2402.5103016708554
14.069999999999892 -2400.6297109950538
14.099999999999891 -2393.4960164684035
14.12999999999989 -2378.730238410148
14.15999999999989 -2354.690502520994
14.18999999999989 -2320.6609510525573
14.219999999999889 -2276.942767500099
14.249999999999888 -2224.838845308577
14.279999999999887 -2166.5189144840733
14.309999999999887 -2104.77826791893
14.339999999999886 -2042.7359536888835
14.369999999999886 -1983.509243771603
14.399999999999885 -1929.9135243003623
14.429999999999884 -1884.2161440325162
14.459999999999884 -1847.9381310948586
14.489999999999883 -1821.7399474189915
14.519999999999882 -1805.3931483780912
14.549999999999882 -1797.8466179608267
14.579999999999881 -1797.3618965745386
14.60999999999988 -1801.7342010936663
14.63999999999988 -1808.5130190705281
14.66999999999988 -1815.2567704865767
14.699999999999878 -1819.7595629544826
14.729999999999878 -1820.2800077361017
14.759999999999877 -1815.6991793070843
14.789999999999877 -1805.633007603681
14.819999999999876 -1790.4722584372835
14.849999999999875 -1771.3069649519748
14.879999999999875 -1749.776214531583
14.909999999999874 -1727.824415156274
14.939999999999873 -1707.4399571985691
14.969999999999873 -1690.4274909518197
14.999999999999872 -1678.2140864479343
15.029999999999871 -1671.713196686466
15.05999999999987 -1671.224324183284
15.08999999999987 -1676.4265009361043
15.11999999999987 -1686.415708007252
15.149999999999869 -1699.7990278179725
15.179999999999868 -1714.8621878456154
15.209999999999868 -1729.8041528314388
15.239999999999867 -1743.0008406990855
15.269999999999866 -1753.1291600126756
15.299999999999866 -1759.2331731560487
15.329999999999865 -1760.7814328423096
15.359999999999864 -1757.7007789151323
15.389999999999864 -1750.3718755462737
15.419999999999863 -1739.6273880519013
15.449999999999863 -1726.6266110422578
15.479999999999862 -1712.675975953894
15.509999999999861 -1699.0315231604704
15.53999999999986 -1686.7435522027818
15.56999999999986 -1676.535263372707
15.59999999999986 -1668.7512489926892
15.629999999999859 -1663.3501759039252
15.659999999999858 -1659.90956970645
15.689999999999857 -1657.6569831621136
15.719999999999857 -1655.5423295967225
15.749999999999856 -1652.3593281761098
15.779999999999855 -1646.864868348865
15.809999999999855 -1637.9391711435253
15.839999999999854 -1624.7095767960443
15.869999999999854 -1606.5989998404439
15.899999999999853 -1583.3790855074622
15.929999999999852 -1555.1706748661884
15.959999999999852 -1522.4143129637773
15.989999999999851 -1485.835303810076
16.01999999999985 -1446.363213647236
16.04999999999985 -1404.9973874166906
16.079999999999853 -1362.6861944048615
