# Results for "element" with Id # 2045271 for search config "initial" at position: x0: 15.7631578947; y0: -23.7368421053; z0: 167.6667
# time PRESSURE
0.03 1334.0044461336017
0.06 3814.9015042859573
0.09 7165.041201127884
0.12 11042.089652268605
0.15 15071.44587430828
0.18 18880.727704079836
0.21 22132.874326379508
0.24 24554.981463751432
0.27 25960.499469735354
0.30000000000000004 26263.02155526744
0.33000000000000007 25480.607521617712
0.3600000000000001 23730.41822515265
0.3900000000000001 21214.329031696252
0.42000000000000015 18197.050420978434
0.4500000000000002 14979.024319647397
0.4800000000000002 11866.871433704837
0.5100000000000002 9144.366828263666
0.5400000000000003 7046.781514197259
0.5700000000000003 5740.965157047383
0.6000000000000003 5312.83290053335
0.6300000000000003 5763.06648101375
0.6600000000000004 7010.967562364849
0.6900000000000004 8905.631531997728
0.7200000000000004 11242.99381285516
0.7500000000000004 13786.8971396977
0.7800000000000005 16292.118320205533
0.8100000000000005 18527.258737204345
0.8400000000000005 20295.51340639033
0.8700000000000006 21451.56715215817
0.9000000000000006 21913.213725130117
0.9300000000000006 21666.751093987434
0.9600000000000006 20765.770175525773
0.9900000000000007 19323.568156810732
1.0200000000000007 17500.065318419944
1.0500000000000007 15484.653784533803
1.0800000000000007 13476.815683508157
1.1100000000000008 11666.535730860784
1.1400000000000008 10216.480874237464
1.1700000000000008 9247.64308584421
1.2000000000000008 8829.690938684698
1.2300000000000009 8976.725527919729
1.260000000000001 9648.552141792294
1.290000000000001 10757.051275723705
1.320000000000001 12176.766376632117
1.350000000000001 13758.502902467237
1.380000000000001 15344.525588634537
1.410000000000001 16783.872588924347
1.440000000000001 17946.363106679968
1.470000000000001 18734.049756713586
1.500000000000001 19089.14367155394
1.5300000000000011 18997.79396148739
1.5600000000000012 18489.513632410442
1.5900000000000012 17632.45810333109
1.6200000000000012 16525.170522273496
1.6500000000000012 15285.729086831114
1.6800000000000013 14039.465615041285
1.7100000000000013 12906.522677872948
1.7400000000000013 11990.481018485185
1.7700000000000014 11369.124591360785
1.8000000000000014 11088.143554442808
1.8300000000000014 11158.243438656318
1.8600000000000014 11555.769066925794
1.8900000000000015 12226.60977899816
1.9200000000000015 13092.848577638963
1.9500000000000015 14061.390815760999
1.9800000000000015 15033.657364999295
2.0100000000000016 15915.369955484657
2.0400000000000014 16625.487505213117
2.070000000000001 17103.468257037028
2.100000000000001 17314.221737740812
2.130000000000001 17250.359535047002
2.1600000000000006 16931.631936707636
2.1900000000000004 16401.720963676984
2.22 15722.81949342521
2.25 14968.633817128295
2.28 14216.580184635053
2.3099999999999996 13539.993661885264
2.3399999999999994 13001.12630639359
2.369999999999999 12645.59165977554
2.399999999999999 12498.731500131858
2.429999999999999 12564.162065001143
2.4599999999999986 12824.52708209753
2.4899999999999984 13244.266407052766
2.5199999999999982 13774.024294702756
2.549999999999998 14356.182525299684
2.579999999999998 14930.923135550926
2.6099999999999977 15442.204128153127
2.6399999999999975 15843.070070497928
2.6699999999999973 16099.810530090723
2.699999999999997 16194.61326339042
2.729999999999997 16126.521306227065
2.7599999999999967 15910.679276427845
2.7899999999999965 15576.023156577212
2.8199999999999963 15161.717074235356
2.849999999999996 14712.752458214101
2.879999999999996 14275.189358854344
2.9099999999999957 13891.533247435298
2.9399999999999955 13596.702778689936
2.9699999999999953 13414.961111982311
2.999999999999995 13358.067246072802
3.029999999999995 13424.768597048615
3.0599999999999947 13601.613753693338
3.0899999999999945 13864.936544757828
3.1199999999999943 14183.751357920755
3.149999999999994 14523.223937073935
3.179999999999994 14848.342461026365
3.2099999999999937 15127.41277971894
3.2399999999999936 15335.038560476918
3.2699999999999934 15454.315557876813
3.299999999999993 15478.060999104742
3.329999999999993 15409.004643011482
3.3599999999999928 15258.978338667112
3.3899999999999926 15047.235816419688
3.4199999999999924 14798.118750735752
3.449999999999992 14538.339239865141
3.479999999999992 14294.172368271213
3.509999999999992 14088.847855395026
3.5399999999999916 13940.391857684597
3.5699999999999914 13860.110932642398
3.599999999999991 13851.836590593852
3.629999999999991 13911.96284328058
3.659999999999991 14030.229035310243
3.6899999999999906 14191.127625359493
3.7199999999999904 14375.759879600126
3.7499999999999902 14563.927865664444
3.77999999999999 14736.238365530857
3.80999999999999 14876.006509403947
3.8399999999999896 14970.778077196275
3.8699999999999894 15013.338107811855
3.8999999999999893 15002.132863830942
3.929999999999989 14941.096219774361
3.959999999999989 14838.932481328386
3.9899999999999887 14707.95911716943
4.019999999999989 14562.651597423854
4.049999999999989 14418.055431845005
4.079999999999989 14288.234872450308
4.10999999999999 14184.911887500364
4.13999999999999 14116.422432667929
4.16999999999999 14087.077879055603
4.19999999999999 14096.971551298016
4.229999999999991 14142.22420859693
4.259999999999991 14215.616728022744
4.289999999999991 14307.522714628092
4.319999999999991 14407.02828073339
4.349999999999992 14503.113790563999
4.379999999999992 14585.774329351068
4.409999999999992 14646.968643550888
4.439999999999992 14681.310831769246
4.469999999999993 14686.450321223361
4.499999999999993 14663.120346842086
4.529999999999993 14614.870758355988
4.559999999999993 14547.532172438772
4.589999999999994 14468.482976433243
4.619999999999994 14385.805631128882
4.649999999999994 14307.424697091592
4.679999999999994 14240.314946783077
4.709999999999995 14189.85601769662
4.739999999999995 14159.390297119658
4.769999999999995 14150.016263545582
4.799999999999995 14160.622397079813
4.829999999999996 14188.142596569
4.859999999999996 14227.992689147097
4.889999999999996 14274.633579598256
4.919999999999996 14322.194252713423
4.949999999999997 14365.088475958186
4.979999999999997 14398.562621391144
5.009999999999997 14419.122898681951
5.039999999999997 14424.806144328264
5.069999999999998 14415.276845444221
5.099999999999998 14391.753208894905
5.129999999999998 14356.78070639441
5.159999999999998 14313.886947894185
5.189999999999999 14267.16011916746
5.219999999999999 14220.799123323126
5.249999999999999 14178.682007587217
5.279999999999999 14143.99587475738
5.31 14118.962595100518
5.34 14104.681758814397
5.37 14101.097251904179
5.4 14107.082999140848
5.430000000000001 14120.630640103938
5.460000000000001 14139.114357923241
5.490000000000001 14159.598070855001
5.520000000000001 14179.153431022827
5.550000000000002 14195.15561827239
5.580000000000002 14205.52599781279
5.610000000000002 14208.903527086939
5.640000000000002 14204.732562695239
5.670000000000003 14193.26353389085
5.700000000000003 14175.472026489824
5.730000000000003 14152.910628278041
5.760000000000003 14127.51239024581
5.790000000000004 14101.370998921535
5.820000000000004 14076.521211903799
5.850000000000004 14054.741085105874
5.880000000000004 14037.3939686749
5.910000000000005 14025.322614251407
5.940000000000005 14018.802573546962
5.970000000000005 14017.556072666335
6.000000000000005 14020.819796278263
6.030000000000006 14027.456320572746
6.060000000000006 14036.09428469171
6.090000000000006 14045.281935062063
6.120000000000006 14053.637469320623
6.150000000000007 14059.981147099465
6.180000000000007 14063.438120727009
6.210000000000007 14063.503294143627
6.240000000000007 14060.06402134705
6.270000000000008 14053.383138944755
6.300000000000008 14044.045943839155
6.330000000000008 14032.878800969052
6.360000000000008 14020.84946340226
6.390000000000009 14008.96110740623
6.420000000000009 13998.150496508759
6.450000000000009 13989.199803937754
6.480000000000009 13982.670975816622
6.51000000000001 13978.865735485568
6.54000000000001 13977.813429363825
6.57000000000001 13979.286929998201
6.60000000000001 13982.8414995194
6.6300000000000106 13987.872610634146
6.660000000000011 13993.685041273135
6.690000000000011 13999.564489232456
6.720000000000011 14004.845585056524
6.7500000000000115 14008.971380579253
6.780000000000012 14011.53878012838
6.810000000000012 14012.326166163246
6.840000000000012 14011.3020705061
6.8700000000000125 14008.614619575972
6.900000000000013 14004.564373548266
6.930000000000013 13999.565162740459
6.960000000000013 13994.096304273151
6.9900000000000135 13988.651962344564
7.020000000000014 13983.692805097064
7.050000000000014 13979.603419816558
7.080000000000014 13976.659760345512
7.1100000000000145 13975.00861299217
7.140000000000015 13974.661170206979
7.170000000000015 13975.5006980375
7.200000000000015 13977.301539549393
7.2300000000000155 13979.75716255046
7.260000000000016 13982.514791938233
7.290000000000016 13985.211449449438
7.320000000000016 13987.508841508738
7.3500000000000165 13989.124160380723
7.380000000000017 13989.853995400423
7.410000000000017 13989.589550495084
7.440000000000017 13988.322431642013
7.4700000000000175 13986.14006592011
7.500000000000018 13983.212687846852
7.530000000000018 13979.774255680388
7.560000000000018 13976.098640347562
7.5900000000000185 13972.471808110571
7.620000000000019 13969.163036353395
7.650000000000019 13966.398417313732
7.680000000000019 13964.34099634525
7.7100000000000195 13963.078476888651
7.74000000000002 13962.61809818359
7.77000000000002 13962.889026546769
7.80000000000002 13963.753199871891
7.8300000000000205 13965.02244417477
7.860000000000021 13966.479700314827
7.890000000000021 13967.901907683872
7.920000000000021 13969.082621963058
7.9500000000000215 13969.852552639502
7.980000000000022 13970.094811521849
8.010000000000021 13969.754261702417
8.04000000000002 13968.84173813199
8.07000000000002 13967.430943411202
8.10000000000002 13965.648293034634
8.130000000000019 13963.657636486721
8.160000000000018 13961.64272277337
8.190000000000017 13959.787838097247
8.220000000000017 13958.259033187256
8.250000000000016 13957.188174842173
8.280000000000015 13956.660357340357
8.310000000000015 13956.70659488448
8.340000000000014 13957.302350532123
8.370000000000013 13958.372002461383
8.400000000000013 13959.798239091488
8.430000000000012 13961.43532340447
8.460000000000012 13963.125002888746
8.49000000000001 13964.712818779226
8.52000000000001 13966.063482590725
8.55000000000001 13967.073528541237
8.580000000000009 13967.680694706663
8.610000000000008 13967.869130868525
8.640000000000008 13967.668472909396
8.670000000000007 13967.148772960354
8.700000000000006 13966.411029736642
8.730000000000006 13965.574819321604
8.760000000000005 13964.764368109812
8.790000000000004 13964.094569829607
8.820000000000004 13963.65842204156
8.850000000000003 13963.517533355993
8.880000000000003 13963.696335509621
8.910000000000002 13964.180268623113
8.940000000000001 13964.918145453117
8.97 13965.82854473465
9.0 13966.809200554364
9.03 13967.748591886035
9.059999999999999 13968.536633488178
9.089999999999998 13969.077583587654
9.119999999999997 13969.29920888232
9.149999999999997 13969.158377499969
9.179999999999996 13968.644388540206
9.209999999999996 13967.77821314058
9.239999999999995 13966.608173024562
9.269999999999994 13965.202759835345
9.299999999999994 13963.642752621166
9.329999999999993 13962.011743570049
9.359999999999992 13960.387978322025
9.389999999999992 13958.835408302013
9.419999999999991 13957.396758603127
9.44999999999999 13956.087422773526
9.47999999999999 13954.895105249338
9.50999999999999 13953.781553298591
9.539999999999988 13952.687887586653
9.569999999999988 13951.54294850758
9.599999999999987 13950.273274641859
9.629999999999987 13948.811350894372
9.659999999999986 13947.101309194346
9.689999999999985 13945.103131746237
9.719999999999985 13942.797106447317
9.749999999999984 13940.183916697646
9.779999999999983 13937.283136689846
9.809999999999983 13934.131316384186
9.839999999999982 13930.777080558819
9.869999999999981 13927.274450808403
9.89999999999998 13923.68037477909
9.92999999999998 13920.050704419102
9.95999999999998 13916.431946881876
9.989999999999979 13912.857240678692
10.019999999999978 12734.447745848822
10.049999999999978 10010.57798085453
10.079999999999977 6165.94779858788
10.109999999999976 1732.832368557949
10.139999999999976 -2717.8471103883
10.169999999999975 -6648.799082803738
10.199999999999974 -9620.390033737076
10.229999999999974 -11338.008266131272
10.259999999999973 -11677.925072850943
10.289999999999973 -10690.323023081099
10.319999999999972 -8581.152769356971
10.349999999999971 -5676.710757847014
10.37999999999997 -2376.424103438454
10.40999999999997 899.8199725444091
10.43999999999997 3763.2531271487337
10.469999999999969 5900.666873300211
10.499999999999968 7106.858400523419
10.529999999999967 7301.92714346894
10.559999999999967 6532.249594774703
10.589999999999966 4956.10544572076
10.619999999999965 2816.7160592410646
10.649999999999965 406.92817432330867
10.679999999999964 -1969.5066621748524
10.709999999999964 -4035.036566784852
10.739999999999963 -5569.395749970647
10.769999999999962 -6431.3982376207805
10.799999999999962 -6569.586411110862
10.829999999999961 -6021.409256893296
10.85999999999996 -4902.01305843779
10.88999999999996 -3384.7921736058247
10.919999999999959 -1676.6562800078434
10.949999999999958 8.705480340667982
10.979999999999958 1476.3141950391769
11.009999999999957 2571.273948520514
11.039999999999957 3193.8472842958654
11.069999999999956 3306.9304275329187
11.099999999999955 2935.600637856907
11.129999999999955 2159.3907025262406
11.159999999999954 1098.740079355296
11.189999999999953 -102.30532844423276
11.219999999999953 -1294.792525648772
11.249999999999952 -2342.6246162813495
11.279999999999951 -3137.3665197806354
11.30999999999995 -3608.5954080753554
11.33999999999995 -3728.96095429665
11.36999999999995 -3513.8170676275186
11.399999999999949 -3015.937672583533
11.429999999999948 -2316.345554498007
11.459999999999948 -1512.6561614783939
11.489999999999947 -706.4903481307717
11.519999999999946 8.509497812249407
11.549999999999946 556.7316661256978
11.579999999999945 887.729298627924
11.609999999999944 979.8612987710122
11.639999999999944 840.3305958906909
11.669999999999943 501.9221365659023
11.699999999999942 17.09877311140425
11.729999999999942 -549.6405107542184
11.759999999999941 -1130.1052719986546
11.78999999999994 -1660.4381750236191
11.81999999999994 -2087.94864391376
11.84999999999994 -2376.084424887351
11.879999999999939 -2507.135934637952
11.909999999999938 -2482.5704421678574
11.939999999999937 -2321.1654788379215
11.969999999999937 -2055.3627411711605
11.999999999999936 -1726.4141627947922
12.029999999999935 -1378.975988741815
12.059999999999935 -1055.8095973419954
12.089999999999934 -793.1876992612348
12.119999999999933 -617.4495162061659
12.149999999999933 -542.9882557114247
12.179999999999932 -571.7455515743327
12.209999999999932 -694.1323163307053
12.239999999999931 -891.1291084058091
12.26999999999993 -1137.2241468912703
12.29999999999993 -1403.7934686568483
12.329999999999929 -1662.5104826712159
12.359999999999928 -1888.3973601056855
12.389999999999928 -2062.2224919501095
12.419999999999927 -2172.039789647255
12.449999999999926 -2213.7900672991577
12.479999999999926 -2190.989760122865
12.509999999999925 -2113.6407677272805
12.539999999999925 -1996.5503274161376
12.569999999999924 -1857.2979261095174
12.599999999999923 -1714.1111565527333
12.629999999999923 -1583.8873736543162
12.659999999999922 -1480.5560440842646
12.689999999999921 -1413.9128693381317
12.71999999999992 -1389.0044573394018
12.74999999999992 -1406.0712615290454
12.77999999999992 -1460.9946668667897
12.809999999999919 -1546.143322564235
12.839999999999918 -1651.498648263132
12.869999999999918 -1765.9005681458311
12.899999999999917 -1878.2801170093467
12.929999999999916 -1978.7615055616334
12.959999999999916 -2059.538169526689
12.989999999999915 -2115.4589858467475
13.019999999999914 -2144.2973111019473
13.049999999999914 -2146.708405523211
13.079999999999913 -2125.9111567427535
13.109999999999912 -2087.154049752884
13.139999999999912 -2037.037301038118
13.169999999999911 -1982.767327870667
13.19999999999991 -1931.419605890991
13.22999999999991 -1889.2802409429412
13.25999999999991 -1861.3185481242438
13.289999999999909 -1850.8284625505228
13.319999999999908 -1859.2442504819687
13.349999999999907 -1886.1360542674165
13.379999999999907 -1929.3863321919546
13.409999999999906 -1985.4963049657567
13.439999999999905 -2049.9700577229323
13.469999999999905 -2117.774658815422
13.499999999999904 -2183.8252631904747
13.529999999999903 -2243.4388967680065
13.559999999999903 -2292.7261887516906
13.589999999999902 -2328.8955779124135
13.619999999999902 -2350.438700346007
13.6499999999999 -2357.1914833828287
13.6799999999999 -2350.268336031536
13.7099999999999 -2331.8709640753063
13.739999999999899 -2304.9929717738523
13.769999999999898 -2273.0867273527683
13.799999999999898 -2239.7009445070535
13.829999999999897 -2208.1336147878455
13.859999999999896 -2181.143359031224
13.889999999999896 -2160.717065499545
13.919999999999895 -2147.888337046367
13.949999999999894 -2142.6877773080296
13.979999999999894 -2144.1613355016707
14.009999999999893 -2150.4968782022006
14.039999999999893 -2159.22410620422
14.069999999999892 -2167.5423005899984
14.099999999999891 -2172.6664971066466
14.12999999999989 -2172.1503339352967
14.15999999999989 -2164.1666227401192
14.18999999999989 -2147.6930885587244
14.219999999999889 -2122.6205124094445
14.249999999999888 -2089.772464889928
14.279999999999887 -2050.814510503111
14.309999999999887 -2008.057763100293
14.339999999999886 -1964.1947331584342
14.369999999999886 -1922.0014078770723
14.399999999999885 -1884.0529318596396
14.429999999999884 -1852.483974619547
14.459999999999884 -1828.7866705778179
14.489999999999883 -1813.6835732722761
14.519999999999882 -1807.077227385949
14.549999999999882 -1808.092177447053
14.579999999999881 -1815.1835386037494
14.60999999999988 -1826.333552975204
14.63999999999988 -1839.2644527816506
14.66999999999988 -1851.6954557768267
14.699999999999878 -1861.5682029711406
14.729999999999878 -1867.2717241018
14.759999999999877 -1867.7997904612225
14.789999999999877 -1862.8592127133977
14.819999999999876 -1852.904635680708
14.849999999999875 -1839.05932688331
14.879999999999875 -1822.962214930456
14.909999999999874 -1806.5296156560423
14.939999999999873 -1791.70687334061
14.969999999999873 -1780.248458337037
14.999999999999872 -1773.5296312528385
15.029999999999871 -1772.4142699667964
15.05999999999987 -1777.1579114861543
15.08999999999987 -1787.3991350696865
15.11999999999987 -1802.1974940932305
15.149999999999869 -1820.1323778956619
15.179999999999868 -1839.4695867520836
15.209999999999868 -1858.3856294162292
15.239999999999867 -1875.211534339363
15.269999999999866 -1888.5612649053594
15.299999999999866 -1897.4066521166624
15.329999999999865 -1901.1413084202864
15.359999999999864 -1899.6140120185464
15.389999999999864 -1893.1224855355617
15.419999999999863 -1882.4099536941478
15.449999999999863 -1868.5489809900546
15.479999999999862 -1852.7783855730859
15.509999999999861 -1836.3133793936006
15.53999999999986 -1820.190512770703
15.56999999999986 -1805.1486027502228
15.59999999999986 -1791.5831925425828
15.629999999999859 -1779.5466117724482
15.659999999999858 -1768.7617831272078
15.689999999999857 -1758.6619223751072
15.719999999999857 -1748.461209986367
15.749999999999856 -1737.2612784607377
15.779999999999855 -1724.1540593655427
15.809999999999855 -1708.3546682761416
15.839999999999854 -1689.290385281856
15.869999999999854 -1666.6446320436253
15.899999999999853 -1640.389274656254
15.929999999999852 -1610.7786886543595
15.959999999999852 -1578.3121296940521
15.989999999999851 -1543.6897521521469
16.01999999999985 -1507.740143281666
16.04999999999985 -1471.315049415917
16.079999999999853 -1435.1906146336587
