# Results for "element" with Id # 131386 for search config "initial" at position: x0: 7.78947368421; y0: -31.7105263158; z0: 167.6667
# time PRESSURE
0.03 1341.2457200510644
0.06 3835.7004896357166
0.09 7204.293179270246
0.12 11102.891010683375
0.15 15154.851651558325
0.18 18985.653294577052
0.21 22256.155161230963
0.24 24691.61064868696
0.27 26104.058613964095
0.30000000000000004 26406.29875594019
0.33000000000000007 25616.360742871955
0.3600000000000001 23852.20041643775
0.3900000000000001 21317.260404937515
0.42000000000000015 18278.41086177478
0.4500000000000002 15038.560647286879
0.4800000000000002 11906.76467339724
0.5100000000000002 9168.870332842102
0.5400000000000003 7061.601319612593
0.5700000000000003 5752.491896678155
0.6000000000000003 5327.343383576168
0.6300000000000003 5785.99662317541
0.6600000000000004 7046.331396221958
0.6900000000000004 8955.631466213817
0.7200000000000004 11307.847883119317
0.7500000000000004 13864.894122147807
0.7800000000000005 16379.89746095291
0.8100000000000005 18620.290012344216
0.8400000000000005 20388.724827744918
0.8700000000000006 21540.034048645008
0.9000000000000006 21992.802769516307
0.9300000000000006 21734.61326732963
0.9600000000000006 20820.60306218591
0.9900000000000007 19365.619764308096
1.0200000000000007 17530.903369265474
1.0500000000000007 15506.769768079055
1.0800000000000007 13493.154063747315
1.1100000000000008 11680.036834117325
1.1400000000000008 10229.70632390563
1.1700000000000008 9262.524167288371
1.2000000000000008 8847.412289503318
1.2300000000000009 8997.731966455327
1.260000000000001 9672.65139894298
1.290000000000001 10783.574230169612
1.320000000000001 12204.746676602319
1.350000000000001 13786.841992714053
1.380000000000001 15372.120016459776
1.410000000000001 16809.694141512275
1.440000000000001 17969.49594516879
1.470000000000001 18753.699275448333
1.500000000000001 19104.63562853055
1.5300000000000011 19008.580946728158
1.5600000000000012 18495.197219739508
1.5900000000000012 17632.825964807493
1.6200000000000012 16520.237936665908
1.6500000000000012 15275.76904495668
1.6800000000000013 14025.011692218459
1.7100000000000013 12888.333797469837
1.7400000000000013 11969.467367271858
1.7700000000000014 11346.242883708208
1.8000000000000014 11064.278790299528
1.8300000000000014 11134.097392069418
1.8600000000000014 11531.775954724477
1.8900000000000015 12202.893226273125
1.9200000000000015 13069.2261008702
1.9500000000000015 14037.42227402508
1.9800000000000015 15008.725345952009
2.0100000000000016 15888.7748939403
2.0400000000000014 16596.53941288667
2.070000000000001 17071.560392988387
2.100000000000001 17278.87751107128
2.130000000000001 17211.251919924052
2.1600000000000006 16888.580501993005
2.1900000000000004 16354.676009677094
2.22 15671.843003177322
2.25 14913.883895482277
2.28 14158.301542214682
2.3099999999999996 13478.511750439728
2.3399999999999994 12936.839700687655
2.369999999999999 12578.9563568603
2.399999999999999 12430.2329790751
2.429999999999999 12494.274294358442
2.4599999999999986 12753.662556027084
2.4899999999999984 13172.724591923337
2.5199999999999982 13701.947914148437
2.549999999999998 14283.531127316555
2.579999999999998 14857.47052218895
2.6099999999999977 15367.562379092753
2.6399999999999975 15766.737959311551
2.6699999999999973 16021.239684566779
2.699999999999997 16113.28223462866
2.729999999999997 16042.006279054991
2.7599999999999967 15822.710782670698
2.7899999999999965 15484.520938170212
2.8199999999999963 15066.799038825793
2.849999999999996 14614.717645628834
2.879999999999996 14174.478999423427
2.9099999999999957 13788.676646614414
2.9399999999999955 13492.25618076271
2.9699999999999953 13309.44776280551
2.999999999999995 13251.925715939547
3.029999999999995 13318.314620698431
3.0599999999999947 13495.0187712856
3.0899999999999945 13758.223778985714
3.1199999999999943 14076.80835991137
3.149999999999994 14415.829138427152
3.179999999999994 14740.201869357727
3.2099999999999937 15018.202376158366
3.2399999999999936 15224.447567789726
3.2699999999999934 15342.085878934893
3.299999999999993 15364.019241478954
3.329999999999993 15293.084107517281
3.3599999999999928 15141.228362180726
3.3899999999999926 14927.81838238182
3.4199999999999924 14677.293503427458
3.449999999999992 14416.43861830619
3.479999999999992 14171.570328205182
3.509999999999992 13965.925330562914
3.5399999999999916 13817.502822873543
3.5699999999999914 13737.553099024404
3.599999999999991 13729.82925675186
3.629999999999991 13790.634441030448
3.659999999999991 13909.615376722551
3.6899999999999906 14071.180601279255
3.7199999999999904 14256.365815959281
3.7499999999999902 14444.932984061335
3.77999999999999 14617.477481206663
3.80999999999999 14757.330517450862
3.8399999999999896 14852.077487153452
3.8699999999999894 14894.560712437396
3.8999999999999893 14883.294458083648
3.929999999999989 14822.283960469722
3.959999999999989 14720.298758990788
3.9899999999999887 14589.709167606015
4.019999999999989 14445.026936316592
4.049999999999989 14301.314545406673
4.079999999999989 14172.63309792096
4.10999999999999 14070.683065818495
4.13999999999999 14003.765259128677
4.16999999999999 13976.147053505943
4.19999999999999 13987.874376089097
4.229999999999991 14035.02345261528
4.259999999999991 14110.338954046856
4.289999999999991 14204.170037446615
4.319999999999991 14305.59213593395
4.349999999999992 14403.589310693313
4.379999999999992 14488.173273331973
4.409999999999992 14551.329722215165
4.439999999999992 14587.706565833061
4.469999999999993 14594.989572984317
4.499999999999993 14573.946749378176
4.529999999999993 14528.157736308287
4.559999999999993 14463.474751128015
4.589999999999994 14387.286960281317
4.619999999999994 14307.676048924615
4.649999999999994 14232.554922321495
4.679999999999994 14168.877356040972
4.709999999999995 14121.99511540123
4.739999999999995 14095.219105810129
4.769999999999995 14089.61604765018
4.799999999999995 14104.045306878523
4.829999999999996 14135.41718048229
4.859999999999996 14179.13194739828
4.889999999999996 14229.644325200676
4.919999999999996 14281.08521289409
4.949999999999997 14327.875975503155
4.979999999999997 14365.274700284435
5.009999999999997 14389.80240951098
5.039999999999997 14399.511541228243
5.069999999999998 14394.078930635393
5.099999999999998 14374.729250924109
5.129999999999998 14344.007800121928
5.159999999999998 14305.435212193799
5.189999999999999 14263.087626732698
5.219999999999999 14221.147784394443
5.249999999999999 14183.474244362918
5.279999999999999 14153.232332020465
5.31 14132.621651132733
5.34 14122.721063846822
5.37 14123.45723769279
5.4 14133.691474599505
5.430000000000001 14151.407107790736
5.460000000000001 14173.973406377923
5.490000000000001 14198.45155886107
5.520000000000001 14221.911980069865
5.550000000000002 14241.73089061672
5.580000000000002 14255.832611961501
5.610000000000002 14262.859584662307
5.640000000000002 14262.259050733712
5.670000000000003 14254.282318633299
5.700000000000003 14239.903263591368
5.730000000000003 14220.670364549529
5.760000000000003 14198.510289634763
5.790000000000004 14175.507354049889
5.820000000000004 14153.68352434698
5.850000000000004 14134.801045301943
5.880000000000004 14120.206071271785
5.910000000000005 14110.725019020569
5.940000000000005 14106.619728545456
5.970000000000005 14107.602381139366
6.000000000000005 14112.903444335798
6.030000000000006 14121.38358953148
6.060000000000006 14131.673809756503
6.090000000000006 14142.328014331077
6.120000000000006 14151.971934454805
6.150000000000007 14159.433375069728
6.180000000000007 14163.844002934433
6.210000000000007 14164.70381064601
6.240000000000007 14161.902209147944
6.270000000000008 14155.702077725942
6.300000000000008 14146.689608065266
6.330000000000008 14135.694456357
6.360000000000008 14123.689563409562
6.390000000000009 14111.6839513264
6.420000000000009 14100.621164537595
6.450000000000009 14091.292125748705
6.480000000000009 14084.270013676427
6.51000000000001 14079.869317605171
6.54000000000001 14078.132071707989
6.57000000000001 14078.842402333952
6.60000000000001 14081.564947582607
6.6300000000000106 14085.702680737979
6.660000000000011 14090.56641618432
6.690000000000011 14095.446626602125
6.720000000000011 14099.681232928018
6.7500000000000115 14102.71524140497
6.780000000000012 14104.147090332111
6.810000000000012 14103.757876939824
6.840000000000012 14101.521529793667
6.8700000000000125 14097.594278147897
6.900000000000013 14092.286184075729
6.930000000000013 14086.021332838773
6.960000000000013 14079.28983939199
6.9900000000000135 14072.597337873847
7.020000000000014 14066.416616461933
7.050000000000014 14061.145124984774
7.080000000000014 14057.07237864898
7.1100000000000145 14054.359110384597
7.140000000000015 14053.030149496448
7.170000000000015 14052.981737818207
7.200000000000015 14053.999185559636
7.2300000000000155 14055.783931187383
7.260000000000016 14057.988825733937
7.290000000000016 14060.254766548584
7.320000000000016 14062.24635035486
7.3500000000000165 14063.683189333991
7.380000000000017 14064.36408827841
7.410000000000017 14064.182410710342
7.440000000000017 14063.13190579811
7.4700000000000175 14061.302188302117
7.500000000000018 14058.865989266316
7.530000000000018 14056.059619691016
7.560000000000018 14053.15796816153
7.5900000000000185 14050.446268976875
7.620000000000019 14048.191503448244
7.650000000000019 14046.616156897653
7.680000000000019 14045.878395111586
7.7100000000000195 14046.059813852256
7.74000000000002 14047.16041204597
7.77000000000002 14049.10101463935
7.80000000000002 14051.73398919102
7.8300000000000205 14054.859936875604
7.860000000000021 14058.248891011332
7.890000000000021 14061.663449710893
7.920000000000021 14064.881723795212
7.9500000000000215 14067.718170480024
7.980000000000022 14070.039673686753
8.010000000000021 14071.775252569449
8.04000000000002 14072.920551139796
8.07000000000002 14073.535446098416
8.10000000000002 14073.734441764203
8.130000000000019 14073.671681268981
8.160000000000018 14073.523690820997
8.190000000000017 14073.470138587496
8.220000000000017 14073.674819496062
8.250000000000016 14074.269213810405
8.280000000000015 14075.339373539604
8.310000000000015 14076.918196821005
8.340000000000014 14078.983429210091
8.370000000000013 14081.461842441107
8.400000000000013 14084.238869138973
8.430000000000012 14087.171795857108
8.460000000000012 14090.105624525135
8.49000000000001 14092.889359626008
8.52000000000001 14095.391384259266
8.55000000000001 14097.511906226042
8.580000000000009 14099.192040585447
8.610000000000008 14100.418635442895
8.640000000000008 14101.223259731916
8.670000000000007 14101.677124230608
8.700000000000006 14101.881658251314
8.730000000000006 14101.956563467862
8.760000000000005 14102.02623548302
8.790000000000004 14102.205925658509
8.820000000000004 14102.589165196207
8.850000000000003 14103.238212523745
8.880000000000003 14104.178120939165
8.910000000000002 14105.394822445736
8.940000000000001 14106.837366685222
8.97 14108.424017444764
9.0 14110.050871620902
9.03 14111.603488364182
9.059999999999999 14112.96830021717
9.089999999999998 14114.044329026068
9.119999999999997 14114.753012182344
9.149999999999997 14115.04474336979
9.179999999999996 14114.902838648002
9.209999999999996 14114.343108217414
9.239999999999995 14113.409089685865
9.269999999999994 14112.163882858584
9.299999999999994 14110.679673716251
9.329999999999993 14109.028296145774
9.359999999999992 14107.27493155855
9.389999999999992 14105.471924544509
9.419999999999991 14103.652939494481
9.44999999999999 14101.827662277457
9.47999999999999 14099.980898191403
9.50999999999999 14098.074096609245
9.539999999999988 14096.050187456622
9.569999999999988 14093.841669834215
9.599999999999987 14091.380515653052
9.629999999999987 14088.606821211288
9.659999999999986 14085.474504071057
9.689999999999985 14081.954721324633
9.719999999999985 14078.04055569016
9.749999999999984 14073.747404168673
9.779999999999983 14069.112516950512
9.809999999999983 14064.191454976652
9.839999999999982 14059.051850197882
9.869999999999981 14053.767892189111
9.89999999999998 14048.414760780686
9.92999999999998 14043.062639334523
9.95999999999998 14037.769288364401
9.989999999999979 14032.575838852646
10.019999999999978 12845.722285112271
10.049999999999978 10104.12909469164
10.079999999999977 6235.0453513813445
10.109999999999976 1774.7003682362356
10.139999999999976 -2701.3710114515898
10.169999999999975 -6651.678855134627
10.199999999999974 -9633.77428158614
10.229999999999974 -11352.134425685683
10.259999999999973 -11684.006525440891
10.289999999999973 -10681.978826378589
10.319999999999972 -8555.152308497622
10.349999999999971 -5633.013581894698
10.37999999999997 -2317.678585399159
10.40999999999997 969.1203846468513
10.43999999999997 3837.7175591794658
10.469999999999969 5974.879804396285
10.499999999999968 7176.0700537767625
10.529999999999967 7362.512357798307
10.559999999999967 6581.951003606341
10.589999999999966 4994.114431039459
10.619999999999965 2843.6406304860666
10.649999999999965 424.6706772670983
10.679999999999964 -1957.9609106689431
10.709999999999964 -4025.9331013902147
10.739999999999963 -5558.626354658907
10.769999999999962 -6414.9902969814075
10.799999999999962 -6544.194421604524
10.829999999999961 -5984.721718515104
10.85999999999996 -4852.987751333145
10.88999999999996 -3323.6660433243096
10.919999999999959 -1604.726599454758
10.949999999999958 89.48152066944039
10.979999999999958 1563.8172795578728
11.009999999999957 2663.7109715816
11.039999999999957 3290.14180939737
11.069999999999956 3406.961733563663
11.099999999999955 3040.265805959634
11.129999999999955 2270.503810787285
11.159999999999954 1218.811145109225
11.189999999999953 29.64064747658163
11.219999999999953 -1147.9517875923586
11.249999999999952 -2178.0398393367236
11.279999999999951 -2952.5733702980424
11.30999999999995 -3401.6544858019192
11.33999999999995 -3498.5208935323085
11.36999999999995 -3259.1057027853312
11.399999999999949 -2736.6969384582617
11.429999999999948 -2012.7279393184092
11.459999999999948 -1185.102618108589
11.489999999999947 -355.59978466334235
11.519999999999946 382.09483285680676
11.549999999999946 952.4119418457175
11.579999999999945 1304.9976975765906
11.609999999999944 1418.3174963678457
11.639999999999944 1299.6637513036653
11.669999999999943 981.8659980954033
11.699999999999942 517.364413881302
11.729999999999942 -29.44640291924033
11.759999999999941 -590.5591488913908
11.78999999999994 -1102.3642548415305
11.81999999999994 -1512.454102766999
11.84999999999994 -1784.569879113525
11.879999999999939 -1901.2784052571376
11.909999999999938 -1864.2773306074862
11.939999999999937 -1692.5074813598076
11.969999999999937 -1418.4915618444763
11.999999999999936 -1083.4739694377315
12.029999999999935 -732.0206794128865
12.059999999999935 -406.7379573914314
12.089999999999934 -143.70553484070678
12.119999999999933 30.936498938557172
12.149999999999933 102.97132597344358
12.179999999999932 70.58656062667981
12.209999999999932 -56.55932692068049
12.239999999999931 -259.4389317287481
12.26999999999993 -512.5845508709773
12.29999999999993 -787.447704982926
12.329999999999929 -1055.7827662334673
12.359999999999928 -1292.6737166772014
12.389999999999928 -1478.9106443157193
12.419999999999927 -1602.5154446254123
12.449999999999926 -1659.335786846618
12.479999999999926 -1652.7320470020172
12.509999999999925 -1592.489940190013
12.539999999999925 -1493.149220583085
12.569999999999924 -1371.981956879086
12.599999999999923 -1246.8840241385508
12.629999999999923 -1134.4142370018565
12.659999999999922 -1048.171936724735
12.689999999999921 -997.6466094659336
12.71999999999992 -987.6156361405972
12.74999999999992 -1018.0950932794793
12.77999999999992 -1084.790449055614
12.809999999999919 -1179.9433199364018
12.839999999999918 -1293.450848886653
12.869999999999918 -1414.1057484529954
12.899999999999917 -1530.8238360741075
12.929999999999916 -1633.7398975483347
12.959999999999916 -1715.076463535221
12.989999999999915 -1769.7239524474146
13.019999999999914 -1795.5042038011684
13.049999999999914 -1793.1217456249472
13.079999999999913 -1765.8400659411946
13.109999999999912 -1718.942492825155
13.139999999999912 -1659.050788039333
13.169999999999911 -1593.3785945823256
13.19999999999991 -1528.9961498887847
13.22999999999991 -1472.1755095435246
13.25999999999991 -1427.868322649744
13.289999999999909 -1399.3522457314828
13.319999999999908 -1388.0540891898918
13.349999999999907 -1393.5536172079892
13.379999999999907 -1413.767482018249
13.409999999999906 -1445.2686914919857
13.439999999999905 -1483.6905290245713
13.469999999999905 -1524.2018891688426
13.499999999999904 -1562.0011052153463
13.529999999999903 -1592.7739250153754
13.559999999999903 -1613.080689829516
13.589999999999902 -1620.645901995269
13.619999999999902 -1614.5247353025197
13.6499999999999 -1595.1422629664298
13.6799999999999 -1564.202146307774
13.7099999999999 -1524.4745148075308
13.739999999999899 -1479.487428086809
13.769999999999898 -1433.1723392597482
13.799999999999898 -1389.4827720864441
13.829999999999897 -1352.0293973132902
13.859999999999896 -1323.77911725254
13.889999999999896 -1306.8195102449556
13.919999999999895 -1302.200367125
13.949999999999894 -1309.898572548273
13.979999999999894 -1328.8714821286596
14.009999999999893 -1357.2069037983974
14.039999999999893 -1392.3220435255655
14.069999999999892 -1431.2735649363567
14.099999999999891 -1471.0885093593956
14.12999999999989 -1509.0776564666216
14.15999999999989 -1543.1186866793835
14.18999999999989 -1571.8424473186687
14.219999999999889 -1594.7236028395691
14.249999999999888 -1612.0725450923032
14.279999999999887 -1624.9252810189369
14.309999999999887 -1634.848869936955
14.339999999999886 -1643.71005127275
14.369999999999886 -1653.4345354304644
14.399999999999885 -1665.7912078558852
14.429999999999884 -1682.2161777177744
14.459999999999884 -1703.6511747462382
14.489999999999883 -1730.4277350593404
14.519999999999882 -1762.2065144654978
14.549999999999882 -1797.9973683895757
14.579999999999881 -1836.2354714333223
14.60999999999988 -1874.9387284416043
14.63999999999988 -1911.9172551215363
14.66999999999988 -1945.0301469380731
14.699999999999878 -1972.4073864554618
14.729999999999878 -1992.6553425779152
14.759999999999877 -2005.0019356580751
14.789999999999877 -2009.3803640365645
14.819999999999876 -2006.4347810547124
14.849999999999875 -1997.4278876501214
14.879999999999875 -1984.0863896672067
14.909999999999874 -1968.3890889628126
14.939999999999873 -1952.3519115218328
14.969999999999873 -1937.825862396653
14.999999999999872 -1926.3170996196313
15.029999999999871 -1918.8517799284548
15.05999999999987 -1915.8772388507457
15.08999999999987 -1917.2429070593612
15.11999999999987 -1922.2334046158335
15.149999999999869 -1929.6645580290292
15.179999999999868 -1938.0387157520706
15.209999999999868 -1945.7457160967326
15.239999999999867 -1951.278154834642
15.269999999999866 -1953.3812672092126
15.299999999999866 -1951.1624631118937
15.329999999999865 -1944.1758458990791
15.359999999999864 -1932.4585436158354
15.389999999999864 -1916.5148703488744
15.419999999999863 -1897.2786983016426
15.449999999999863 -1875.9899907380284
15.479999999999862 -1854.0395081194426
15.509999999999861 -1832.7950880301091
15.53999999999986 -1813.450583709734
15.56999999999986 -1796.8998889059742
15.59999999999986 -1783.6700934717155
15.629999999999859 -1773.9005599844859
15.659999999999858 -1767.3529820428828
15.689999999999857 -1763.4567263515441
15.719999999999857 -1761.3873170127565
15.749999999999856 -1760.1774640056742
15.779999999999855 -1758.8290568810394
15.809999999999855 -1756.4400607628686
15.839999999999854 -1752.2938131496453
15.869999999999854 -1745.9141683570967
15.899999999999853 -1737.1004349787959
15.929999999999852 -1725.9265002570205
15.959999999999852 -1712.707027086222
15.989999999999851 -1697.9505844168275
16.01999999999985 -1682.291485012937
16.04999999999985 -1666.4014664094673
16.079999999999853 -1650.8995067087112
