# Results for "element" with Id # 1756524 for search config "initial" at position: x0: 17.3578947368; y0: -22.1421052632; z0: 167.6667
# time PRESSURE
0.03 1332.8521328698966
0.06 3811.5975695074185
0.09 7158.818550165939
0.12 11032.471926874372
0.15 15058.28168510225
0.18 18864.198975103864
0.21 22113.47786428676
0.24 24533.48349578573
0.27 25937.864401801242
0.30000000000000004 26240.318824013604
0.33000000000000007 25458.90380454922
0.3600000000000001 23710.66569415616
0.3900000000000001 21197.262434590695
0.42000000000000015 18183.106618837002
0.4500000000000002 14968.295953949873
0.4800000000000002 11859.102037251932
0.5100000000000002 9138.988445469335
0.5400000000000003 7042.989154994912
0.5700000000000003 5737.816922005388
0.6000000000000003 5309.361619704481
0.6300000000000003 5758.3887859214965
0.6600000000000004 7004.3783488414065
0.6900000000000004 8896.67533777079
0.7200000000000004 11231.507505261776
0.7500000000000004 13773.020798042668
0.7800000000000005 16276.273070640538
0.8100000000000005 18510.092466917857
0.8400000000000005 20277.818482331233
0.8700000000000006 21434.17854498458
0.9000000000000006 21896.900553872485
0.9300000000000006 21652.11756399609
0.9600000000000006 20753.182166965576
0.9900000000000007 19313.11726646676
1.0200000000000007 17491.575550526726
1.0500000000000007 15477.727445694443
1.0800000000000007 13470.908017514721
1.1100000000000008 11661.04367108945
1.1400000000000008 10210.830662024435
1.1700000000000008 9241.363839468435
1.2000000000000008 8822.46516581297
1.2300000000000009 8968.412299574817
1.260000000000001 9639.182743381029
1.290000000000001 10746.80129633664
1.320000000000001 12165.910840380218
1.350000000000001 13747.363167420019
1.380000000000001 15333.417303901853
1.410000000000001 16773.063050341992
1.440000000000001 17936.0438943115
1.470000000000001 18724.326984297837
1.500000000000001 19080.044533810473
1.5300000000000011 18989.28503936907
1.5600000000000012 18481.524871842357
1.5900000000000012 17624.906055659354
1.6200000000000012 16517.975936176485
1.6500000000000012 15278.826241978131
1.6800000000000013 14032.80339619574
1.7100000000000013 12900.059603713366
1.7400000000000013 11984.177699554366
1.7700000000000014 11362.937311135393
1.8000000000000014 11082.021686649952
1.8300000000000014 11152.13200184658
1.8600000000000014 11549.615823800232
1.8900000000000015 12220.375068791665
1.9200000000000015 13086.515221602975
1.9500000000000015 14054.971488158195
1.9800000000000015 15027.19753634936
2.0100000000000016 15908.945613124126
2.0400000000000014 16619.198035176665
2.070000000000001 17097.425827420917
2.100000000000001 17308.53917518281
2.130000000000001 17245.138697966013
2.1600000000000006 16926.954366214482
2.1900000000000004 16397.641857248673
2.22 15719.36533832013
2.25 14965.803441533393
2.28 14214.348477899992
2.3099999999999996 13538.317127721477
2.3399999999999994 12999.949630284642
2.369999999999999 12644.854690249813
2.399999999999999 12498.376179309322
2.429999999999999 12564.139023037063
2.4599999999999986 12824.80152707661
2.4899999999999984 13244.822945933345
2.5199999999999982 13774.870223352915
2.549999999999998 14357.349042714559
2.579999999999998 14932.464109114782
2.6099999999999977 15444.192215420604
2.6399999999999975 15845.59037422491
2.6699999999999973 16102.952351366363
2.699999999999997 16198.460874594864
2.729999999999997 16131.144921296687
2.7599999999999967 15916.12747797789
2.7899999999999965 15582.317850302708
2.8199999999999963 15168.851702114573
2.849999999999996 14720.693770280439
2.879999999999996 14283.882448401773
2.9099999999999957 13900.909118643376
2.9399999999999955 13606.68734778605
2.9699999999999953 13425.484401922298
2.999999999999995 13369.071597875383
3.029999999999995 13436.214925147113
3.0599999999999947 13613.485180109861
3.0899999999999945 13877.239183695772
3.1199999999999943 14196.512383986217
3.149999999999994 14536.487349668643
3.179999999999994 14862.16322968877
3.2099999999999937 15141.850140800532
3.2399999999999936 15350.149250681483
3.2699999999999934 15470.147674022475
3.299999999999993 15494.64928075712
3.329999999999993 15426.367711514522
3.3599999999999928 15277.11754917385
3.3899999999999926 15066.135982611497
3.4199999999999924 14817.750660896678
3.449999999999992 14558.66351043954
3.479999999999992 14315.14426065922
3.509999999999992 14110.422146055189
3.5399999999999916 13962.527336706455
3.5699999999999914 13882.774438078814
3.599999999999991 13875.005845042055
3.629999999999991 13935.62806374557
3.659999999999991 14054.393178568109
3.6899999999999906 14215.805320254201
3.7199999999999904 14400.975162399664
3.7499999999999902 14589.711003211616
3.77999999999999 14762.622375851013
3.80999999999999 14903.023602944113
3.8399999999999896 14998.456076419927
3.8699999999999894 15041.697163290562
3.8999999999999893 15031.183219965313
3.929999999999989 14970.837378864991
3.959999999999989 14869.353614050178
3.9899999999999887 14739.040608479354
4.019999999999989 14594.367495915118
4.049999999999989 14450.376327975388
4.079999999999989 14321.13071440809
4.10999999999999 14218.354550334498
4.13999999999999 14150.387745596003
4.16999999999999 14121.547004176187
4.19999999999999 14131.93159389965
4.229999999999991 14177.668007232121
4.259999999999991 14251.541724756542
4.289999999999991 14343.929131677762
4.319999999999991 14443.916920011849
4.349999999999992 14540.483741284497
4.379999999999992 14623.620862962587
4.409999999999992 14685.281493685923
4.439999999999992 14720.073103042023
4.469999999999993 14725.638181817565
4.499999999999993 14702.703530154778
4.529999999999993 14654.813844700857
4.559999999999993 14587.796429269662
4.589999999999994 14509.028442550922
4.619999999999994 14426.593124956718
4.649999999999994 14348.417532925132
4.679999999999994 14281.480267796229
4.709999999999995 14231.16552813721
4.739999999999995 14200.82020464332
4.769999999999995 14191.546597102586
4.799999999999995 14202.236033242552
4.829999999999996 14229.824149150565
4.859999999999996 14269.727385797152
4.889999999999996 14316.405905991951
4.919999999999996 14363.986593817794
4.949999999999997 14406.879870457069
4.979999999999997 14440.32758513914
5.009999999999997 14460.830342397472
5.039999999999997 14466.418794171877
5.069999999999998 14456.751343150223
5.099999999999998 14433.040633958502
5.129999999999998 14397.827394230182
5.159999999999998 14354.635444102867
5.189999999999999 14307.550000859872
5.219999999999999 14260.767814622333
5.249999999999999 14218.165653504082
5.279999999999999 14182.930258876338
5.31 14157.283883411124
5.34 14142.32680855844
5.37 14138.003467549215
5.4 14143.187758194597
5.430000000000001 14155.870578351769
5.460000000000001 14173.424543263514
5.490000000000001 14192.911440803666
5.520000000000001 14211.400522217176
5.550000000000002 14226.264305556208
5.580000000000002 14235.421545694686
5.610000000000002 14237.508935760361
5.640000000000002 14231.969081471267
5.670000000000003 14219.051369044902
5.700000000000003 14199.73107550572
5.730000000000003 14175.561189009772
5.760000000000003 14148.47594443034
5.790000000000004 14120.571065804328
5.820000000000004 14093.884128027355
5.850000000000004 14070.196680194396
5.880000000000004 14050.876089545516
5.910000000000005 14036.769482882668
5.940000000000005 14028.157035504475
5.970000000000005 14024.765761087045
6.000000000000005 14025.837215418831
6.030000000000006 14030.238879731925
6.060000000000006 14036.60440492478
6.090000000000006 14043.487286976135
6.120000000000006 14049.51131665626
6.150000000000007 14053.502838333567
6.180000000000007 14054.593644721685
6.210000000000007 14052.285818979188
6.240000000000007 14046.474509738124
6.270000000000008 14037.430886803017
6.300000000000008 14025.748919152662
6.330000000000008 14012.263874999839
6.360000000000008 13997.952632616621
6.390000000000009 13983.827694975225
6.420000000000009 13970.83525079949
6.450000000000009 13959.766756368419
6.480000000000009 13951.193046255588
6.51000000000001 13945.424243966005
6.54000000000001 13942.49758459975
6.57000000000001 13942.193158926699
6.60000000000001 13944.0726699177
6.6300000000000106 13947.537128015056
6.660000000000011 13951.895837729942
6.690000000000011 13956.43809717615
6.720000000000011 13960.501321295671
6.7500000000000115 13963.530609751968
6.780000000000012 13965.124264024176
6.810000000000012 13965.061472201447
6.840000000000012 13963.311044218768
6.8700000000000125 13960.02099366626
6.900000000000013 13955.491513452092
6.930000000000013 13950.135790961293
6.960000000000013 13944.432159394644
6.9900000000000135 13938.873334618165
7.020000000000014 13933.91797444401
7.050000000000014 13929.948018174746
7.080000000000014 13927.236181258078
7.1100000000000145 13925.92550518669
7.140000000000015 13926.022927894832
7.170000000000015 13927.406900403017
7.200000000000015 13929.846411378165
7.2300000000000155 13933.029034507435
7.260000000000016 13936.595527846186
7.290000000000016 13940.17592854908
7.320000000000016 13943.42453499808
7.3500000000000165 13946.05084624107
7.380000000000017 13947.843645542353
7.410000000000017 13948.686404276108
7.440000000000017 13948.563201022629
7.4700000000000175 13947.554231627266
7.500000000000018 13945.822971893052
7.530000000000018 13943.596877267497
7.560000000000018 13941.143173487824
7.5900000000000185 13938.741143281473
7.620000000000019 13936.653617131315
7.650000000000019 13935.100672629253
7.680000000000019 13934.239892147438
7.7100000000000195 13934.154185249678
7.74000000000002 13934.846808009792
7.77000000000002 13936.243879632848
7.80000000000002 13938.205216518501
7.8300000000000205 13940.541348184663
7.860000000000021 13943.034548767388
7.890000000000021 13945.461522963178
7.920000000000021 13947.61587763262
7.9500000000000215 13949.328527737343
7.980000000000022 13950.48272817694
8.010000000000021 13951.023366634981
8.04000000000002 13950.961153686898
8.07000000000002 13950.369571288278
8.10000000000002 13949.374865869333
8.130000000000019 13948.14084116838
8.160000000000018 13946.851492469832
8.190000000000017 13945.69169876419
8.220000000000017 13944.828496740538
8.250000000000016 13944.395158651814
8.280000000000015 13944.478583528242
8.310000000000015 13945.111942614727
8.340000000000014 13946.273163224994
8.370000000000013 13947.889317063777
8.400000000000013 13949.845899828995
8.430000000000012 13952.000025190198
8.460000000000012 13954.196246781905
8.49000000000001 13956.282766149452
8.52000000000001 13958.126748393513
8.55000000000001 13959.626971737838
8.580000000000009 13960.723226261522
8.610000000000008 13961.401610230138
8.640000000000008 13961.693634126943
8.670000000000007 13961.67114227905
8.700000000000006 13961.43682855697
8.730000000000006 13961.111837498469
8.760000000000005 13960.821812256005
8.790000000000004 13960.682887598658
8.820000000000004 13960.789130932433
8.850000000000003 13961.203034858005
8.880000000000003 13961.949696639655
8.910000000000002 13963.0149707919
8.940000000000001 13964.347853769948
8.97 13965.866937345552
9.0 13967.469924069783
9.03 13969.045205683742
9.059999999999999 13970.482540903038
9.089999999999998 13971.685908575935
9.119999999999997 13972.58264692105
9.149999999999997 13973.12908005187
9.179999999999996 13973.313902736598
9.209999999999996 13973.157459463782
9.239999999999995 13972.707521243057
9.269999999999994 13972.032174324235
9.299999999999994 13971.211941471336
9.329999999999993 13970.330034770632
9.359999999999992 13969.463816169013
9.389999999999992 13968.675713842254
9.419999999999991 13968.006287235827
9.44999999999999 13967.468381659779
9.47999999999999 13967.047284605125
9.50999999999999 13966.702434735756
9.539999999999988 13966.372378016993
9.569999999999988 13965.983137353298
9.599999999999987 13965.457982214224
9.629999999999987 13964.72541029292
9.659999999999986 13963.725242523102
9.689999999999985 13962.4131816719
9.719999999999985 13960.765147107482
9.749999999999984 13958.777222776971
9.779999999999983 13956.464710880738
9.809999999999983 13953.861407567812
9.839999999999982 13951.014448721053
9.869999999999981 13947.97601614
9.89999999999998 13944.80115891662
9.92999999999998 13941.54481747905
9.95999999999998 13938.253416093781
9.989999999999979 13934.96082299355
10.019999999999978 12757.736777074106
10.049999999999978 10036.37576222728
10.079999999999977 6195.3254543216935
10.109999999999976 1766.3517737039351
10.139999999999976 -2680.32106593572
10.169999999999975 -6608.135579100361
10.199999999999974 -9578.047396557531
10.229999999999974 -11295.741896705256
10.259999999999973 -11637.427125156342
10.289999999999973 -10652.899422342376
10.319999999999972 -8547.527410227041
10.349999999999971 -5646.994851132916
10.37999999999997 -2350.2309194508125
10.40999999999997 923.1754303587823
10.43999999999997 3784.545760714745
10.469999999999969 5920.60376616445
10.499999999999968 7125.993894104346
10.529999999999967 7320.640106156616
10.559999999999967 6550.753840131387
10.589999999999966 4974.463125600298
10.619999999999965 2834.8380959734513
10.649999999999965 424.56459099062147
10.679999999999964 -1952.7707156197232
10.709999999999964 -4019.761711153401
10.739999999999963 -5556.2349659173115
10.769999999999962 -6421.011436380599
10.799999999999962 -6562.541687968056
10.829999999999961 -6018.094511883461
10.85999999999996 -4902.579995480293
10.88999999999996 -3389.145117360217
10.919999999999959 -1684.4851373158765
10.949999999999958 -2.140046539837453
10.979999999999958 1462.9807090450188
11.009999999999957 2555.974219246813
11.039999999999957 3177.0353104949318
11.069999999999956 3288.95312644761
11.099999999999955 2916.680672486532
11.129999999999955 2139.628308700983
11.159999999999954 1078.1290084504053
11.189999999999953 -123.85225886918533
11.219999999999953 -1317.4120836676834
11.249999999999952 -2366.4699536393096
11.279999999999951 -3162.5754478039944
11.30999999999995 -3635.263585020446
11.33999999999995 -3757.1229281837723
11.36999999999995 -3543.4376014612394
11.399999999999949 -3046.913869609725
11.429999999999948 -2348.518894570302
11.459999999999948 -1545.8319888348915
11.489999999999947 -740.4622630241769
11.519999999999946 -26.065437549617158
11.549999999999946 521.7111272256786
11.579999999999945 852.3676521601785
11.609999999999944 944.1995640477904
11.639999999999944 804.3429248674878
11.669999999999943 465.5191609636553
11.699999999999942 -19.862464097691213
11.729999999999942 -587.3412067756416
11.759999999999941 -1168.7464122571255
11.78999999999994 -1700.2217630430332
11.81999999999994 -2129.060711273762
11.84999999999994 -2418.680122574339
11.879999999999939 -2551.3283493816666
11.909999999999938 -2528.424514700805
11.939999999999937 -2368.6970388043246
11.969999999999937 -2104.542383685849
11.999999999999936 -1777.1750053220892
12.029999999999935 -1431.2239366226495
12.059999999999935 -1109.4342809131938
12.089999999999934 -848.0722054026294
12.119999999999933 -673.477646628869
12.149999999999933 -600.0489108233688
12.179999999999932 -629.7342404308852
12.209999999999932 -752.950811570953
12.239999999999931 -950.68410083756
12.26999999999993 -1197.4257535904699
12.29999999999993 -1464.5545034744455
12.329999999999929 -1723.7466879534436
12.359999999999928 -1950.0283807787414
12.389999999999928 -2124.173349540995
12.419999999999927 -2234.2425313196395
12.449999999999926 -2276.1857242863875
12.479999999999926 -2253.530574092989
12.509999999999925 -2176.2926458280613
12.539999999999925 -2059.2951097355813
12.569999999999924 -1920.135482812912
12.599999999999923 -1777.060705876743
12.629999999999923 -1646.9875276445187
12.659999999999922 -1543.8638914993653
12.689999999999921 -1477.5020953500239
12.71999999999992 -1452.962834260099
12.74999999999992 -1470.4979687063437
12.77999999999992 -1525.9975265594112
12.809999999999919 -1611.8359496390904
12.839999999999918 -1717.9983066493714
12.869999999999918 -1833.3265859375233
12.899999999999917 -1946.75266501964
12.929999999999916 -2048.400694136524
12.959999999999916 -2130.4632877955455
12.989999999999915 -2187.787339390563
13.019999999999914 -2218.1425444591277
13.049999999999914 -2222.178771837344
13.079999999999913 -2203.1083448675467
13.109999999999912 -2166.173419342546
13.139999999999912 -2117.9701643703324
13.169999999999911 -2065.7055065787545
13.19999999999991 -2016.4620315680013
13.22999999999991 -1976.541175486337
13.25999999999991 -1950.9365701502247
13.289999999999909 -1942.9754116382696
13.319999999999908 -1954.13295651846
13.349999999999907 -1984.0258010223588
13.379999999999907 -2030.5848875999234
13.409999999999906 -2090.3564948069725
13.439999999999905 -2158.8793165694296
13.469999999999905 -2231.1376699335474
13.499999999999904 -2302.0413345489105
13.529999999999903 -2366.875293685286
13.559999999999903 -2421.6896886014197
13.589999999999902 -2463.6049627866437
13.619999999999902 -2490.9997507520147
13.6499999999999 -2503.5752839674396
13.6799999999999 -2502.2944089657885
13.7099999999999 -2489.195286932176
13.739999999999899 -2467.099311675147
13.769999999999898 -2439.283276154645
13.799999999999898 -2409.123837295674
13.829999999999897 -2379.759110808463
13.859999999999896 -2353.811105510968
13.889999999999896 -2333.1643871340334
13.919999999999895 -2318.788487303161
13.949999999999894 -2310.689147651307
13.979999999999894 -2307.9180458922806
14.009999999999893 -2308.689046179932
14.039999999999893 -2310.573040304448
14.069999999999892 -2310.8269269577495
14.099999999999891 -2306.7545455437735
14.12999999999989 -2296.0480345135356
14.15999999999989 -2277.078085239159
14.18999999999989 -2249.0785879193168
14.219999999999889 -2212.2417264470823
14.249999999999888 -2167.7149286507233
14.279999999999887 -2117.482318713054
14.309999999999887 -2064.1400044473876
14.339999999999886 -2010.6087092787736
14.369999999999886 -1959.8199516790678
14.399999999999885 -1914.424551818744
14.429999999999884 -1876.5539847749822
14.459999999999884 -1847.6278779357485
14.489999999999883 -1828.242735382089
14.519999999999882 -1818.1404302688575
14.549999999999882 -1816.2680517769081
14.579999999999881 -1820.9047905337256
14.60999999999988 -1829.8748228981563
14.63999999999988 -1840.7654562208409
14.66999999999988 -1851.182832738201
14.699999999999878 -1858.977584039764
14.729999999999878 -1862.4705934268868
14.759999999999877 -1860.6088250357934
14.789999999999877 -1853.0742189893638
14.819999999999876 -1840.3193013224845
14.849999999999875 -1823.4875374284215
14.879999999999875 -1804.258492871878
14.909999999999874 -1784.6025064967394
14.939999999999873 -1766.5219359414461
14.969999999999873 -1751.8244483584442
14.999999999999872 -1741.9304261044476
15.029999999999871 -1737.7390158339103
15.05999999999987 -1739.5298071437132
15.08999999999987 -1746.9549170766277
15.11999999999987 -1759.0784035623071
15.149999999999869 -1774.4761642898268
15.179999999999868 -1791.406258497737
15.209999999999868 -1808.040816121319
15.239999999999867 -1822.7206295416254
15.269999999999866 -1834.0807124217285
15.299999999999866 -1841.1199022886497
15.329999999999865 -1843.2606981974218
15.359999999999864 -1840.3820433937228
15.389999999999864 -1832.8144627157453
15.419999999999863 -1821.338555787412
15.449999999999863 -1807.0657455775108
15.479999999999862 -1791.2674364586203
15.509999999999861 -1775.1794898575488
15.53999999999986 -1759.8446739350993
15.56999999999986 -1745.992213697893
15.59999999999986 -1733.9937883514165
15.629999999999859 -1723.8658326804814
15.659999999999858 -1715.2823490851426
15.689999999999857 -1707.6104854999178
15.719999999999857 -1699.9789183897617
15.749999999999856 -1691.3856480262211
15.779999999999855 -1680.8040488409401
15.809999999999855 -1667.3247661185555
15.839999999999854 -1650.2558407548054
15.869999999999854 -1629.1711850768374
15.899999999999853 -1603.9504863556695
15.929999999999852 -1574.7788189372723
15.959999999999852 -1542.1148118262063
15.989999999999851 -1506.650764067778
16.01999999999985 -1469.2356977744253
16.04999999999985 -1430.7588094990933
16.079999999999853 -1392.0432282020085
