# Results for "element" with Id # 27509 for search config "initial" at position: x0: 33.3052631579; y0: -6.19473684211; z0: 167.6667
# time PRESSURE
0.03 1324.2160280855976
0.06 3786.8427013517185
0.09 7112.217421038252
0.12 10960.485649619355
0.15 14959.801020073428
0.18 18740.582794304515
0.21 21968.387995059235
0.24 24372.52358021759
0.27 25768.042841489147
0.30000000000000004 26069.372836711766
0.33000000000000007 25294.54032938133
0.3600000000000001 23559.791596667994
0.3900000000000001 21065.284939317542
0.42000000000000015 18073.38569771268
0.4500000000000002 14881.818064099534
0.4800000000000002 11794.42009320946
0.5100000000000002 9092.4380378289
0.5400000000000003 7009.151824761444
0.5700000000000003 5710.166765618033
0.6000000000000003 5281.008973027612
0.6300000000000003 5722.83023989171
0.6600000000000004 6956.170433944317
0.6900000000000004 8831.970582384014
0.7200000000000004 11148.410496408085
0.7500000000000004 13671.74017298444
0.7800000000000005 16159.05839294935
0.8100000000000005 18380.95685916491
0.8400000000000005 20142.063530512925
0.8700000000000006 21297.76009144447
0.9000000000000006 21765.702302578953
0.9300000000000006 21531.223817040354
0.9600000000000006 20646.256725901458
0.9900000000000007 19221.98341558038
1.0200000000000007 17416.06486090139
1.0500000000000007 15415.814742974213
1.0800000000000007 13419.098970103712
1.1100000000000008 11614.939734547632
1.1400000000000008 10165.773572463117
1.1700000000000008 9193.060703583871
1.2000000000000008 8767.509368473091
1.2300000000000009 8904.641375379351
1.260000000000001 9565.840022360173
1.290000000000001 10664.498396025327
1.320000000000001 12076.410377545679
1.350000000000001 13653.224451819999
1.380000000000001 15237.564636479741
1.410000000000001 16678.345881259105
1.440000000000001 17844.857082260296
1.470000000000001 18638.345803437995
1.500000000000001 19000.106234780305
1.5300000000000011 18915.418346400602
1.5600000000000012 18413.102579959872
1.5900000000000012 17560.873827793326
1.6200000000000012 16457.103493384322
1.6500000000000012 15219.930935679024
1.6800000000000013 13974.910261463767
1.7100000000000013 12842.48126087918
1.7400000000000013 11926.516900899143
1.7700000000000014 11305.030824338743
1.8000000000000014 11023.852330195552
1.8300000000000014 11093.738296800024
1.8600000000000014 11491.022352899065
1.8900000000000015 12161.558882295443
1.9200000000000015 13027.411533306757
1.9500000000000015 13995.51187527804
1.9800000000000015 14967.366543191074
2.0100000000000016 15848.838237653012
2.0400000000000014 16559.06123340761
2.070000000000001 17037.671223894875
2.100000000000001 17249.72141201364
2.130000000000001 17187.90066102957
2.1600000000000006 16871.948464480738
2.1900000000000004 16345.440593344
2.22 15670.376929470845
2.25 14920.20782726497
2.28 14172.064720570877
2.3099999999999996 13499.008286412994
2.3399999999999994 12963.064490231114
2.369999999999999 12609.700173268613
2.399999999999999 12464.209346398908
2.429999999999999 12530.265648288812
2.4599999999999986 12790.66708185124
2.4899999999999984 13210.084208516604
2.5199999999999982 13739.43871104404
2.549999999999998 14321.40121241222
2.579999999999998 14896.41846123317
2.6099999999999977 15408.657285293972
2.6399999999999975 15811.291389811913
2.6699999999999973 16070.646633895423
2.699999999999997 16168.852967106093
2.729999999999997 16104.812010878628
2.7599999999999967 15893.464070716102
2.7899999999999965 15563.505328269603
2.8199999999999963 15153.855086731273
2.849999999999996 14709.28479204372
2.879999999999996 14275.684279220144
2.9099999999999957 13895.456144182883
2.9399999999999955 13603.491618712524
2.9699999999999953 13424.100352382531
2.999999999999995 13369.151558440313
3.029999999999995 13437.54960632422
3.0599999999999947 13616.025374921875
3.0899999999999945 13881.097924618049
3.1199999999999943 14201.948924020358
3.149999999999994 14543.876065575278
3.179999999999994 14871.952307691867
3.2099999999999937 15154.51529802144
3.2399999999999936 15366.147915338519
3.2699999999999934 15489.878420190103
3.299999999999993 15518.420383640483
3.329999999999993 15454.377594317719
3.3599999999999928 15309.448346727797
3.3899999999999926 15102.759869816786
3.4199999999999924 14858.547457300094
3.449999999999992 14603.447118695673
3.479999999999992 14363.694795699907
3.509999999999992 14162.51969719095
3.5399999999999916 14017.983757268423
3.5699999999999914 13941.460228724514
3.599999999999991 13936.86918107243
3.629999999999991 14000.704422934417
3.659999999999991 14122.805325688925
3.6899999999999906 14287.75396237359
3.7199999999999904 14476.72201648994
3.7499999999999902 14669.55606233809
3.77999999999999 14846.878272684662
3.80999999999999 14991.989735298153
3.8399999999999896 15092.395633207903
3.8699999999999894 15140.81973995606
3.8999999999999893 15135.634505294376
3.929999999999989 15080.696748438044
3.959999999999989 14984.638950117307
3.9899999999999887 14859.719569301405
4.019999999999989 14720.373709051004
4.049999999999989 14581.628846855507
4.079999999999989 14457.553961795289
4.10999999999999 14359.896932350037
4.13999999999999 14297.03743764649
4.16999999999999 14273.342953956711
4.19999999999999 14288.96892910658
4.229999999999991 14340.097369884108
4.259999999999991 14419.56261214061
4.289999999999991 14517.778447377708
4.319999999999991 14623.854000870986
4.349999999999992 14726.773775647453
4.379999999999992 14816.51858424893
4.409999999999992 14885.01689827773
4.439999999999992 14926.840572634032
4.469999999999993 14939.589948120472
4.499999999999993 14923.948200146844
4.529999999999993 14883.419880530018
4.559999999999993 14823.799772850341
4.589999999999994 14752.442683382353
4.619999999999994 14677.420663793266
4.649999999999994 14606.660491106653
4.679999999999994 14547.150474199696
4.709999999999995 14504.292576159254
4.739999999999995 14481.456614175553
4.769999999999995 14479.769128691067
4.799999999999995 14498.143400024652
4.829999999999996 14533.531956372042
4.859999999999996 14581.361809204926
4.889999999999996 14636.095956091805
4.919999999999996 14691.856824665203
4.949999999999997 14743.043432116121
4.979999999999997 14784.879547105298
5.009999999999997 14813.842247075281
5.039999999999997 14827.935952330809
5.069999999999998 14826.793108177084
5.099999999999998 14811.603381424211
5.129999999999998 14784.889416606413
5.159999999999998 14750.162654311913
5.189999999999999 14711.501847831138
5.219999999999999 14673.102655012024
5.249999999999999 14638.845754865473
5.279999999999999 14611.925736463181
5.31 14594.57495783232
5.34 14587.903807469549
5.37 14591.864253434758
5.4 14605.333033290262
5.430000000000001 14626.298438980399
5.460000000000001 14652.123812267915
5.490000000000001 14679.855815358434
5.520000000000001 14706.544265090424
5.550000000000002 14729.5386027778
5.580000000000002 14746.73259236653
5.610000000000002 14756.738161625213
5.640000000000002 14758.974687213606
5.670000000000003 14753.67069527472
5.700000000000003 14741.783297066198
5.730000000000003 14724.850511032357
5.760000000000003 14704.795489981108
5.790000000000004 14683.706445773718
5.820000000000004 14663.615307482545
5.850000000000004 14646.297923924561
5.880000000000004 14633.114189612164
5.910000000000005 14624.90094135233
5.940000000000005 14621.924826623443
5.970000000000005 14623.895713893693
6.000000000000005 14630.034408270694
6.030000000000006 14639.184266258253
6.060000000000006 14649.95238423686
6.090000000000006 14660.864468458509
6.120000000000006 14670.51618705587
6.150000000000007 14677.70646715417
6.180000000000007 14681.540885659502
6.210000000000007 14681.496972622266
6.240000000000007 14677.44826806815
6.270000000000008 14669.647839935435
6.300000000000008 14658.674903528812
6.330000000000008 14645.353249098534
6.360000000000008 14630.651674836981
6.390000000000009 14615.577606128158
6.420000000000009 14601.074664245942
6.450000000000009 14587.933492892545
6.480000000000009 14576.724894213934
6.51000000000001 14567.759242909626
6.54000000000001 14561.074286511848
6.57000000000001 14556.450464061976
6.60000000000001 14553.450218239945
6.6300000000000106 14551.47579715778
6.660000000000011 14549.838264587994
6.690000000000011 14547.830634421865
6.720000000000011 14544.797058341432
6.7500000000000115 14540.192544722655
6.780000000000012 14533.628200283782
6.810000000000012 14524.898063367578
6.840000000000012 14513.987255717588
6.8700000000000125 14501.061372971091
6.900000000000013 14486.439141467905
6.930000000000013 14470.552639725196
6.960000000000013 14453.899001961965
6.9900000000000135 14436.9892735816
7.020000000000014 14420.29999539319
7.050000000000014 14404.230635367121
7.080000000000014 14389.07145914983
7.1100000000000145 14374.983514960466
7.140000000000015 14361.992189678676
7.170000000000015 14349.994326841677
7.200000000000015 14338.776847455127
7.2300000000000155 14328.044095132293
7.260000000000016 14317.452133718398
7.290000000000016 14306.645290985782
7.320000000000016 14295.29159032095
7.3500000000000165 14283.114102971344
7.380000000000017 14269.9157364532
7.410000000000017 14255.595291997222
7.440000000000017 14240.154018424091
7.4700000000000175 14223.69154458964
7.500000000000018 14206.393072302066
7.530000000000018 14188.509185155317
7.560000000000018 14170.330558186319
7.5900000000000185 14152.159843621586
7.620000000000019 14134.283648026034
7.650000000000019 14116.94730804524
7.680000000000019 14100.335469913909
7.7100000000000195 14084.559750095235
7.74000000000002 14069.653530211206
7.77000000000002 14055.574882975918
7.80000000000002 14042.21660529088
7.8300000000000205 14029.422526031096
7.860000000000021 14017.007719179672
7.890000000000021 14004.780567320797
7.920000000000021 13992.564668402216
7.9500000000000215 13980.218929156217
7.980000000000022 13967.652974683584
8.010000000000021 13954.836850840373
8.04000000000002 13941.80468994546
8.07000000000002 13928.6518284532
8.10000000000002 13915.525479386055
8.130000000000019 13902.61010879261
8.160000000000018 13890.10989402363
8.190000000000017 13878.229096881223
8.220000000000017 13867.15326402811
8.250000000000016 13857.033172557929
8.280000000000015 13847.971978013295
8.310000000000015 13840.017772347324
8.340000000000014 13833.16176883757
8.370000000000013 13827.342144326416
8.400000000000013 13822.452742762507
8.430000000000012 13818.355777922143
8.460000000000012 13814.897276899173
8.49000000000001 13811.923299230259
8.52000000000001 13809.2954227224
8.55000000000001 13806.903825740388
8.580000000000009 13804.677113560225
8.610000000000008 13802.587642442104
8.640000000000008 13800.651492468864
8.670000000000007 13798.92420502826
8.700000000000006 13797.492002070554
8.730000000000006 13796.46016028121
8.760000000000005 13795.93971463321
8.790000000000004 13796.033949275461
8.820000000000004 13796.826593155594
8.850000000000003 13798.372685213977
8.880000000000003 13800.692709701309
8.910000000000002 13803.77037904859
8.940000000000001 13807.554576142837
8.97 13811.965094763007
9.0 13816.901584349147
9.03 13822.253988175127
9.059999999999999 13827.912935201013
9.089999999999998 13833.78000604557
9.119999999999997 13839.775528284192
9.149999999999997 13845.84372704535
9.179999999999996 13851.955089597286
9.209999999999996 13858.105145180842
9.239999999999995 13864.310008837354
9.269999999999994 13870.598538337073
9.299999999999994 13877.004424672485
9.329999999999993 13883.55628058725
9.359999999999992 13890.268554339022
9.389999999999992 13897.133739641795
9.419999999999991 13904.117006749617
9.44999999999999 13911.153627139658
9.47999999999999 13918.15063737619
9.50999999999999 13924.99114649611
9.539999999999988 13931.541454229922
9.569999999999988 13937.660754469955
9.599999999999987 13943.21218630976
9.629999999999987 13948.072872442546
9.659999999999986 13952.141613762667
9.689999999999985 13955.344460430999
9.719999999999985 13957.639729400478
9.749999999999984 13959.020279337954
9.779999999999983 13959.512604545023
9.809999999999983 13959.170112335898
9.839999999999982 13958.064770518366
9.869999999999981 13956.278533504636
9.89999999999998 13953.89543902162
9.92999999999998 13950.993658471834
9.95999999999998 13947.636123745224
9.989999999999979 13943.865544398635
10.019999999999978 12777.183724883984
10.049999999999978 10080.021201559462
10.079999999999977 6270.734052475572
10.109999999999976 1873.8219527111396
10.139999999999976 -2547.167878322513
10.169999999999975 -6460.143361750577
10.199999999999974 -9427.458798625015
10.229999999999974 -11153.315912828033
10.259999999999973 -11510.629571338868
10.289999999999973 -10545.518852853174
10.319999999999972 -8460.47732880892
10.349999999999971 -5579.642643649106
10.37999999999997 -2301.5552667079546
10.40999999999997 954.0428998653615
10.43999999999997 3798.4303338994346
10.469999999999969 5918.7557739447275
10.499999999999968 7110.485982721019
10.529999999999967 7294.365680297053
10.559999999999967 6516.95114317449
10.589999999999966 4935.935088874004
10.619999999999965 2793.1721357823185
10.649999999999965 379.6451528268689
10.679999999999964 -2002.8034442699939
10.709999999999964 -4078.126891242592
10.739999999999963 -5626.853352754893
10.769999999999962 -6507.777798225133
10.799999999999962 -6668.709485650605
10.829999999999961 -6145.873623069036
10.85999999999996 -5052.965590229916
10.88999999999996 -3561.94142578181
10.919999999999959 -1878.4663774462758
10.949999999999958 -215.2961929133778
10.979999999999958 1233.152187190968
11.009999999999957 2312.1565431346626
11.039999999999957 2921.786013476809
11.069999999999956 3024.430919426536
11.099999999999955 2644.4425594911318
11.129999999999955 1860.525780159389
11.159999999999954 792.3181614116471
11.189999999999953 -416.79129204270464
11.219999999999953 -1618.2698217174288
11.249999999999952 -2676.159481592562
11.279999999999951 -3481.8818510271303
11.30999999999995 -3964.6299684633323
11.33999999999995 -4096.4992872030925
11.36999999999995 -3892.2094603993846
11.399999999999949 -3403.909358348278
11.429999999999948 -2712.0830006106426
11.459999999999948 -1913.94785561266
11.489999999999947 -1110.9010430500841
11.519999999999946 -396.539536644185
11.549999999999946 153.4134127774083
11.579999999999945 488.28051269772254
11.609999999999944 586.1206901919567
11.639999999999944 453.8194246198006
11.669999999999943 123.87021440901896
11.699999999999942 -351.49275231601615
11.729999999999942 -907.9117660840636
11.759999999999941 -1477.243994092165
11.78999999999994 -1995.6003957890548
11.81999999999994 -2410.2013645383886
11.84999999999994 -2684.370896349843
11.879999999999939 -2800.2685430947195
11.909999999999938 -2759.253761172791
11.939999999999937 -2580.0469561525747
11.969999999999937 -2295.104732509215
11.999999999999936 -1945.7783654852255
12.029999999999935 -1576.9127603655152
12.059999999999935 -1231.540976910269
12.089999999999934 -946.2744313152664
12.119999999999933 -747.8328247480747
12.149999999999933 -651.000111671973
12.179999999999932 -658.0872866365447
12.209999999999932 -759.8282362954237
12.239999999999931 -937.4619864666088
12.26999999999993 -1165.6590241739773
12.29999999999993 -1415.8982525913798
12.329999999999929 -1659.8800150131378
12.359999999999928 -1872.5873997455135
12.389999999999928 -2034.6979861228806
12.419999999999927 -2134.1440993221004
12.449999999999926 -2166.738567845257
12.479999999999926 -2135.885511670033
12.509999999999925 -2051.50697179871
12.539999999999925 -1928.3707434911391
12.569999999999924 -1784.0599420370181
12.599999999999923 -1636.8437579015958
12.629999999999923 -1503.686013645039
12.659999999999922 -1398.5920866982956
12.689999999999921 -1331.4260736807319
12.71999999999992 -1307.2802881629532
12.74999999999992 -1326.4047506394427
12.77999999999992 -1384.6416689569069
12.809999999999919 -1474.2625423612262
12.839999999999918 -1585.0961415949128
12.869999999999918 -1705.783082101353
12.899999999999917 -1825.0225634923886
12.929999999999916 -1932.691564948548
12.959999999999916 -2020.7393820063858
12.989999999999915 -2083.784447189315
13.019999999999914 -2119.390221261374
13.049999999999914 -2128.0281702124507
13.079999999999913 -2112.760094873971
13.109999999999912 -2078.7031672090493
13.139999999999912 -2032.3499620063726
13.169999999999911 -1980.8166923902563
13.19999999999991 -1931.0977102985053
13.22999999999991 -1889.4074112295698
13.25999999999991 -1860.6577136469446
13.289999999999909 -1848.1131358186512
13.319999999999908 -1853.2279440039329
13.349999999999907 -1875.6724363984408
13.379999999999907 -1913.5307171524205
13.409999999999906 -1963.6139014423525
13.439999999999905 -2021.8508031482443
13.469999999999905 -2083.7349525221093
13.499999999999904 -2144.7798011856066
13.529999999999903 -2200.914354755449
13.559999999999903 -2248.80371557923
13.589999999999902 -2286.078777303861
13.619999999999902 -2311.4702548206556
13.6499999999999 -2324.8314542311646
13.6799999999999 -2327.0777274977
13.7099999999999 -2320.0353829859487
13.739999999999899 -2306.1916490745157
13.769999999999898 -2288.402968393059
13.799999999999898 -2269.5677646721733
13.829999999999897 -2252.2509233864403
13.859999999999896 -2238.4634414310894
13.889999999999896 -2229.5189603561344
13.919999999999895 -2225.9141673988033
13.949999999999894 -2227.342379050562
13.979999999999894 -2232.6627840899396
14.009999999999893 -2240.0255980446063
14.039999999999893 -2247.083523651113
14.069999999999892 -2251.254254827789
14.099999999999891 -2250.022502968336
14.12999999999989 -2241.22983723868
14.15999999999989 -2223.2903507310284
14.18999999999989 -2195.3363120314816
14.219999999999889 -2157.3094620820348
14.249999999999888 -2109.9852651155325
14.279999999999887 -2054.9385678530416
14.309999999999887 -1994.4118821444927
14.339999999999886 -1931.1271774218062
14.369999999999886 -1868.039201807152
14.399999999999885 -1808.0675922286168
14.429999999999884 -1753.8066204356878
14.459999999999884 -1707.2455233166756
14.489999999999883 -1669.5648689268899
14.519999999999882 -1641.0441342909685
14.549999999999882 -1621.0884111236996
14.579999999999881 -1608.3631669442748
14.60999999999988 -1601.0091063494592
14.63999999999988 -1596.8727207053466
14.66999999999988 -1593.7571970903828
14.699999999999878 -1589.667060590396
14.729999999999878 -1583.043579404237
14.759999999999877 -1572.923797541078
14.789999999999877 -1559.026658235004
14.819999999999876 -1541.791023680295
14.849999999999875 -1522.2995658437487
14.879999999999875 -1502.1322925170364
14.909999999999874 -1483.144595912731
14.939999999999873 -1467.2153546000413
14.969999999999873 -1456.0507174585023
14.999999999999872 -1451.0069487510532
15.029999999999871 -1452.9759440002706
15.05999999999987 -1462.298381261214
15.08999999999987 -1478.7369805916105
15.11999999999987 -1501.5240140933693
15.149999999999869 -1529.4449825486445
15.179999999999868 -1560.983113073377
15.209999999999868 -1594.5297216199647
15.239999999999867 -1628.5706982204397
15.269999999999866 -1661.808849294509
15.299999999999866 -1693.2584952038842
15.329999999999865 -1722.3327506333878
15.359999999999864 -1748.90356243827
15.389999999999864 -1773.3285197921314
15.419999999999863 -1796.406487551652
15.449999999999863 -1819.230973886606
15.479999999999862 -1842.9946948887166
15.509999999999861 -1868.801150789509
15.53999999999986 -1897.5511997678118
15.56999999999986 -1929.8093198246356
15.59999999999986 -1965.7268889372472
15.629999999999859 -2005.0196142716443
15.659999999999858 -2046.9547011269392
15.689999999999857 -2090.373684573642
15.719999999999857 -2133.776109604207
15.749999999999856 -2175.42262657961
15.779999999999855 -2213.485411086416
15.809999999999855 -2246.2785751700776
15.839999999999854 -2272.3490459098407
15.869999999999854 -2290.5574553727215
15.899999999999853 -2300.1315941283387
15.929999999999852 -2300.6881085460286
15.959999999999852 -2292.2176268523635
15.989999999999851 -2275.0400461951
16.01999999999985 -2249.734097020227
16.04999999999985 -2217.0444702569735
16.079999999999853 -2177.7651519739616
16.109999999999854 -2132.6306604181723
