# Results for "element" with Id # 27506 for search config "initial" at position: x0: 34.9; y0: -4.6; z0: 167.6667
# time PRESSURE
0.03 1323.6272676689828
0.06 3785.1948829808653
0.09 7109.169835006117
0.12 10955.841775055087
0.15 14953.51575364372
0.18 18732.759267061563
0.21 21959.26319251182
0.24 24362.443213058265
0.27 25757.42705788622
0.30000000000000004 26058.67548086999
0.33000000000000007 25284.20530673275
0.3600000000000001 23550.21047537469
0.3900000000000001 21056.759873808827
0.42000000000000015 18066.10151570174
0.4500000000000002 14875.826595500132
0.4800000000000002 11789.638651059853
0.5100000000000002 9088.662375119777
0.5400000000000003 7006.082052253588
0.5700000000000003 5707.442974625859
0.6000000000000003 5278.252094957294
0.6300000000000003 5719.68325687658
0.6600000000000004 6952.335392974084
0.6900000000000004 8827.237898295745
0.7200000000000004 11142.678208730847
0.7500000000000004 13665.021880843244
0.7800000000000005 16151.479476290777
0.8100000000000005 18372.739290565078
0.8400000000000005 20133.500332141346
0.8700000000000006 21289.18146465739
0.9000000000000006 21757.436700877268
0.9300000000000006 21523.558436930245
0.9600000000000006 20639.402763182414
0.9900000000000007 19216.051269495678
1.0200000000000007 17411.05324150485
1.0500000000000007 15411.615378145387
1.0800000000000007 13415.515885314388
1.1100000000000008 11611.719609275231
1.1400000000000008 10162.642074333173
1.1700000000000008 9189.759239139388
1.2000000000000008 8763.827177283658
1.2300000000000009 8900.43914089716
1.260000000000001 9561.062539888924
1.290000000000001 10659.175477863959
1.320000000000001 12070.646490444891
1.350000000000001 13647.178985731105
1.380000000000001 15231.425883947619
1.410000000000001 16672.302722732602
1.440000000000001 17839.07275583023
1.470000000000001 18632.937764173355
1.500000000000001 18995.13500645967
1.5300000000000011 18910.886463310817
1.5600000000000012 18408.96287515424
1.5900000000000012 17557.04452332477
1.6200000000000012 16453.486638003873
1.6500000000000012 15216.430474146659
1.6800000000000013 13971.446627826503
1.7100000000000013 12839.000472691903
1.7400000000000013 11922.993443089113
1.7700000000000014 11301.464877160583
1.8000000000000014 11020.26281665334
1.8300000000000014 11090.15385064855
1.8600000000000014 11487.472314044866
1.8900000000000015 12158.066247113235
1.9200000000000015 13023.98905456741
1.9500000000000015 13992.161768236621
1.9800000000000015 14964.083418806582
2.0100000000000016 15845.614227534777
2.0400000000000014 16555.891864462556
2.070000000000001 17034.56050559464
2.100000000000001 17246.68486876085
2.130000000000001 17184.965481329626
2.1600000000000006 16869.150664853863
2.1900000000000004 16342.819659068453
2.22 15667.969012541016
2.25 14918.038885190905
2.28 14170.145004039412
2.3099999999999996 13497.32934399596
2.3399999999999994 12961.599343564567
2.369999999999999 12608.40671523308
2.399999999999999 12463.036380301613
2.429999999999999 12529.160551177752
2.4599999999999986 12789.583740522714
2.4899999999999984 13208.98994869268
2.5199999999999982 13738.31909684552
2.549999999999998 14320.262001899937
2.579999999999998 14895.284506254848
2.6099999999999977 15407.56864613147
2.6399999999999975 15810.297372977993
2.6699999999999973 16069.798747687997
2.699999999999997 16168.197897475366
2.729999999999997 16104.385650781798
2.7599999999999967 15893.287433126949
2.7899999999999965 15563.582761966962
2.8199999999999963 15154.17487594247
2.849999999999996 14709.82184200775
2.879999999999996 14276.404301328
2.9099999999999957 13896.320620653412
2.9399999999999955 13604.462779811347
2.9699999999999953 13425.145508004003
2.999999999999995 13370.246310106784
3.029999999999995 13438.679681075178
3.0599999999999947 13617.187022634891
3.0899999999999945 13882.29706061213
3.1199999999999943 14203.199284593893
3.149999999999994 14545.19672836953
3.179999999999994 14873.364944697896
3.2099999999999937 15156.04148057602
3.2399999999999936 15367.806730048895
3.2699999999999934 15491.68457392868
3.299999999999993 15520.382898995987
3.329999999999993 15456.499136218661
3.3599999999999928 15311.725177149077
3.3899999999999926 15105.182362066262
3.4199999999999924 14861.101100659695
3.449999999999992 14606.113905961454
3.479999999999992 14366.454871772385
3.509999999999992 14165.353112999568
3.5399999999999916 14020.872171380215
3.5699999999999914 13944.388398237428
3.599999999999991 13939.82608027917
3.629999999999991 14003.683884734904
3.659999999999991 14125.806157019837
3.6899999999999906 14290.77950602326
3.7199999999999904 14479.779254377405
3.7499999999999902 14672.654351270605
3.77999999999999 14850.027875530686
3.80999999999999 14995.200323921963
3.8399999999999896 15095.674948995353
3.8699999999999894 15144.172571548359
3.8999999999999893 15139.062092527418
3.929999999999989 15084.196667130624
3.959999999999989 14988.205437588844
3.9899999999999887 14863.344245016551
4.019999999999989 14724.046594870255
4.049999999999989 14585.339558173786
4.079999999999989 14461.292863396997
4.10999999999999 14363.656184004873
4.13999999999999 14300.811835544104
4.16999999999999 14277.130473812465
4.19999999999999 14292.770951633249
4.229999999999991 14343.91855907586
4.259999999999991 14423.41052850324
4.289999999999991 14521.662938361424
4.319999999999991 14627.786436902723
4.349999999999992 14730.766214111842
4.379999999999992 14820.582945623853
4.409999999999992 14889.164252595621
4.439999999999992 14931.080613208
4.469999999999993 14943.930690551508
4.499999999999993 14928.395936744222
4.529999999999993 14887.979373746155
4.559999999999993 14828.474657369854
4.589999999999994 14757.236005916791
4.619999999999994 14682.335503794808
4.649999999999994 14611.700578893404
4.679999999999994 14552.32073971866
4.709999999999995 14509.599579370091
4.739999999999995 14486.908808703505
4.769999999999995 14485.376920071236
4.799999999999995 14503.919018764256
4.829999999999996 14539.48917172648
4.859999999999996 14587.5155257023
4.889999999999996 14642.461782957387
4.919999999999996 14698.450599997735
4.949999999999997 14749.880731589667
4.979999999999997 14791.975370898537
5.009999999999997 14821.210886397883
5.039999999999997 14835.590905916644
5.069999999999998 14834.74719620881
5.099999999999998 14819.868924249333
5.129999999999998 14793.478400368227
5.159999999999998 14759.086958029833
5.189999999999999 14720.773551209682
5.219999999999999 14682.73442429407
5.249999999999999 14648.851401890843
5.279999999999999 14622.320689338718
5.31 14605.37632108924
5.34 14599.130101347342
5.37 14603.535190880211
5.4 14617.469396509747
5.430000000000001 14638.922026820543
5.460000000000001 14665.257441464004
5.490000000000001 14693.523408268793
5.520000000000001 14720.770791460425
5.550000000000002 14744.350222412952
5.580000000000002 14762.157142511525
5.610000000000002 14772.805437669866
5.640000000000002 14775.716508599744
5.670000000000003 14771.120946619249
5.700000000000003 14759.97811786273
5.730000000000003 14743.828423798976
5.760000000000003 14724.597288246176
5.790000000000004 14704.375018113275
5.820000000000004 14685.19541738622
5.850000000000004 14668.835928013174
5.880000000000004 14656.65776489058
5.910000000000005 14649.498801220063
5.940000000000005 14647.626509879357
5.970000000000005 14650.751754315083
6.000000000000005 14658.097067947074
6.030000000000006 14668.50863806015
6.060000000000006 14680.597482425681
6.090000000000006 14692.894151049262
6.120000000000006 14703.999999975602
6.150000000000007 14712.720433057957
6.180000000000007 14718.168153701907
6.210000000000007 14719.828263619547
6.240000000000007 14717.582102854434
6.270000000000008 14711.690528970612
6.300000000000008 14702.740308309703
6.330000000000008 14691.562412852578
6.360000000000008 14679.13241202907
6.390000000000009 14666.46405126519
6.420000000000009 14654.506792944863
6.450000000000009 14644.056623385844
6.480000000000009 14635.689129607039
6.51000000000001 14629.71884490614
6.54000000000001 14626.186983327496
6.57000000000001 14624.876686392316
6.60000000000001 14625.35233869831
6.6300000000000106 14627.017338908783
6.660000000000011 14629.183084878608
6.690000000000011 14631.14222969619
6.720000000000011 14632.237979678357
6.7500000000000115 14631.923867409056
6.780000000000012 14629.809014160479
6.810000000000012 14625.684915814289
6.840000000000012 14619.533569553943
6.8700000000000125 14611.516830186134
6.900000000000013 14601.94897396439
6.930000000000013 14591.256824088776
6.960000000000013 14579.931347649164
6.9900000000000135 14568.476442775125
7.020000000000014 14557.360507006026
7.050000000000014 14546.973878786903
7.080000000000014 14537.596750683082
7.1100000000000145 14529.379243256935
7.140000000000015 14522.335092905665
7.170000000000015 14516.348927443592
7.200000000000015 14511.19511325947
7.2300000000000155 14506.565329970992
7.260000000000016 14502.10316417916
7.290000000000016 14497.440998777536
7.320000000000016 14492.235753262352
7.3500000000000165 14486.200469775622
7.380000000000017 14479.129291726491
7.410000000000017 14470.913608741404
7.440000000000017 14461.548621709971
7.4700000000000175 14451.129137765309
7.500000000000018 14439.836511131387
7.530000000000018 14427.91809958999
7.560000000000018 14415.661574328631
7.5900000000000185 14403.366396280613
7.620000000000019 14391.31544562372
7.650000000000019 14379.749559385646
7.680000000000019 14368.847847855526
7.7100000000000195 14358.715161407741
7.74000000000002 14349.37682847544
7.77000000000002 14340.781723804797
7.80000000000002 14332.812365058084
7.8300000000000205 14325.30136522495
7.860000000000021 14318.051857344404
7.890000000000021 14310.859812575864
7.920000000000021 14303.53617067167
7.9500000000000215 14295.927107309933
7.980000000000022 14287.929617394264
8.010000000000021 14279.501328543538
8.04000000000002 14270.664128530994
8.07000000000002 14261.501224361247
8.10000000000002 14252.147800683684
8.130000000000019 14242.776519763716
8.160000000000018 14233.579974091826
8.190000000000017 14224.751184609053
8.220000000000017 14216.464977610558
8.250000000000016 14208.862136501635
8.280000000000015 14202.036839838844
8.310000000000015 14196.029576833658
8.340000000000014 14190.825653922398
8.370000000000013 14186.35934686119
8.400000000000013 14182.522908936015
8.430000000000012 14179.179551184616
8.460000000000012 14176.17910901201
8.49000000000001 14173.37442082031
8.52000000000001 14170.636837868336
8.55000000000001 14167.86919729995
8.580000000000009 14165.015352660665
8.610000000000008 14162.064940693206
8.640000000000008 14159.052815117288
8.670000000000007 14156.054160803902
8.700000000000006 14153.175041866303
8.730000000000006 14150.54014783834
8.760000000000005 14148.27890768437
8.790000000000004 14146.51147010185
8.820000000000004 14145.336606855552
8.850000000000003 14144.822403299491
8.880000000000003 14145.00035640219
8.910000000000002 14145.863265178035
8.940000000000001 14147.367406510984
8.97 14149.438569684437
9.0 14151.98141175162
9.03 14154.890321897661
9.059999999999999 14158.060360902116
9.089999999999998 14161.397818514808
9.119999999999997 14164.828367690567
9.149999999999997 14168.302624895116
9.179999999999996 14171.798799715016
9.209999999999996 14175.321730541982
9.239999999999995 14178.89858711489
9.269999999999994 14182.571051411083
9.299999999999994 14186.387504943083
9.329999999999993 14190.393202236699
9.359999999999992 14194.621156847315
9.389999999999992 14199.084458376896
9.419999999999991 14203.770847610753
9.44999999999999 14208.640005914473
9.47999999999999 14213.624873116478
9.50999999999999 14218.635467305705
9.539999999999988 14223.5652822644
9.569999999999988 14228.300181595769
9.599999999999987 14232.728637805689
9.629999999999987 14236.75078932503
9.659999999999986 14240.285106822012
9.689999999999985 14243.273296634612
9.719999999999985 14245.68474237253
9.749999999999984 14247.518289837528
9.779999999999983 14248.801182025596
9.809999999999983 14249.582488130269
9.839999999999982 14249.925134379351
9.869999999999981 14249.898060327312
9.89999999999998 14249.56955113478
9.92999999999998 14249.000653841056
9.95999999999998 14248.236760068787
9.989999999999979 14247.303467957961
10.019999999999978 13084.797331523901
10.049999999999978 10393.189202544954
10.079999999999977 6590.152083826502
10.109999999999976 2199.7152379316685
10.139999999999976 -2214.7780047163424
10.169999999999975 -6121.236832784045
10.199999999999974 -9081.94153569272
10.229999999999974 -10801.06050298209
10.259999999999973 -11151.568474838206
10.289999999999973 -10179.715244575727
10.319999999999972 -8088.127082927769
10.349999999999971 -5201.007421373732
10.37999999999997 -1916.863776381485
10.40999999999997 1344.6779622328818
10.43999999999997 4195.046838793416
10.469999999999969 6321.523969774387
10.499999999999968 7519.656061486623
10.529999999999967 7710.207245986428
10.559999999999967 6939.705119574717
10.589999999999966 5365.7851678668485
10.619999999999965 3230.231021633732
10.649999999999965 823.9465671760913
10.679999999999964 -1551.3134186894451
10.709999999999964 -3619.5987433654345
10.739999999999963 -5161.537939113758
10.769999999999962 -6036.018163945133
10.799999999999962 -6190.916950565836
10.829999999999961 -5662.490142274637
10.85999999999996 -4564.419370678563
10.88999999999996 -3068.6054703140326
10.919999999999959 -1380.6282809616666
10.949999999999958 286.85659556212505
10.979999999999958 1739.5315569100478
11.009999999999957 2822.7603920776755
11.039999999999957 3436.67692255768
11.069999999999956 3543.7107750492796
11.099999999999955 3168.2262693081357
11.129999999999955 2388.9164895525046
11.159999999999954 1325.385836250166
11.189999999999953 120.97303608546507
11.219999999999953 -1075.8513093738397
11.249999999999952 -2129.199674581745
11.279999999999951 -2930.5674057169863
11.30999999999995 -3409.221121972903
11.33999999999995 -3537.3281384103057
11.36999999999995 -3329.6791981473298
11.399999999999949 -2838.495616402369
11.429999999999948 -2144.3377026255093
11.459999999999948 -1344.5045365623719
11.489999999999947 -540.480172422975
11.519999999999946 174.0487338430067
11.549999999999946 723.2721911321222
11.579999999999945 1056.4372071770192
11.609999999999944 1151.5479340197153
11.639999999999944 1015.466580249773
11.669999999999943 680.7043245823982
11.699999999999942 199.5615668208799
11.729999999999942 -363.48546614957877
11.759999999999941 -940.1249138699263
11.78999999999994 -1466.255857778248
11.81999999999994 -1888.8560753841643
11.84999999999994 -2170.9929247685313
11.879999999999939 -2294.575224203083
11.909999999999938 -2260.738528044535
11.939999999999937 -2088.0260058681056
11.969999999999937 -1808.7795236432298
11.999999999999936 -1464.308126275471
12.029999999999935 -1099.4896718685081
12.059999999999935 -757.46004528324
12.089999999999934 -474.99176896263623
12.119999999999933 -279.00487264359026
12.149999999999933 -184.49882944038575
12.179999999999932 -193.99082193768425
12.209999999999932 -298.38980592125927
12.239999999999931 -479.062387809299
12.26999999999993 -710.7487582950928
12.29999999999993 -964.9373908241208
12.329999999999929 -1213.283653812946
12.359999999999928 -1430.6805264159061
12.389999999999928 -1597.682451758376
12.419999999999927 -1702.0808774224063
12.449999999999926 -1739.543638312732
12.479999999999926 -1713.3378596616703
12.509999999999925 -1633.2659335398757
12.539999999999925 -1513.999762190308
12.569999999999924 -1373.054149984131
12.599999999999923 -1228.6591791697579
12.629999999999923 -1097.768208776729
12.659999999999922 -994.402708650761
12.689999999999921 -928.4668081697248
12.71999999999992 -905.1136888484518
12.74999999999992 -924.6715543184864
12.77999999999992 -983.0745159283821
12.809999999999919 -1072.6963005258576
12.839999999999918 -1183.4755000538044
12.869999999999918 -1304.1679567679957
12.899999999999917 -1423.5914446436063
12.929999999999916 -1531.7420802705774
12.959999999999916 -1620.686192625434
12.989999999999915 -1685.152259892624
13.019999999999914 -1722.8005941552733
13.049999999999914 -1734.1791542545711
13.079999999999913 -1722.3969053663732
13.109999999999912 -1692.57994162996
13.139999999999912 -1651.1843257545347
13.169999999999911 -1605.2389074916728
13.19999999999991 -1561.5976790024401
13.22999999999991 -1526.2861080647033
13.25999999999991 -1503.9865688950129
13.289999999999909 -1497.7040809150858
13.319999999999908 -1508.6161307545535
13.349999999999907 -1536.1135691565578
13.379999999999907 -1578.012438429247
13.409999999999906 -1630.8843731090697
13.439999999999905 -1690.4709551613041
13.469999999999905 -1752.15746364176
13.499999999999904 -1811.4541169698064
13.529999999999903 -1864.4146499495673
13.559999999999903 -1907.9738725443544
13.589999999999902 -1940.1769069702098
13.619999999999902 -1960.2997096426177
13.6499999999999 -1968.8358392156856
13.6799999999999 -1967.3873975067095
13.7099999999999 -1958.4616148238515
13.739999999999899 -1945.1717406404227
13.769999999999898 -1930.8996163116385
13.799999999999898 -1918.9354324543297
13.829999999999897 -1912.0432531805977
13.859999999999896 -1912.232461782779
13.889999999999896 -1920.6212871022199
13.919999999999895 -1937.317412995927
13.949999999999894 -1961.4570844327081
13.979999999999894 -1991.1694677468545
14.009999999999893 -2023.7462629708243
14.039999999999893 -2055.937325593839
14.069999999999892 -2084.304772127335
14.099999999999891 -2105.6154145698474
14.12999999999989 -2117.193888215247
14.15999999999989 -2117.1572821679338
14.18999999999989 -2104.5513517436225
14.219999999999889 -2079.401777672669
14.249999999999888 -2042.6847710709703
14.279999999999887 -1996.2433940730061
14.309999999999887 -1942.6086632947863
14.339999999999886 -1884.7760531882702
14.369999999999886 -1825.9372844286208
14.399999999999885 -1769.2069537409564
14.429999999999884 -1717.3279320740357
14.459999999999884 -1672.3918675095515
14.489999999999883 -1635.6405207361818
14.519999999999882 -1607.385114145934
14.549999999999882 -1587.0445209527984
14.579999999999881 -1573.2901367617142
14.60999999999988 -1564.2619174977633
14.63999999999988 -1557.8022447045346
14.66999999999988 -1551.7086086193563
14.699999999999878 -1543.9784658505062
14.729999999999878 -1533.045438823503
14.759999999999877 -1517.9380734441675
14.789999999999877 -1498.3626827728253
14.819999999999876 -1474.745964294812
14.849999999999875 -1448.1597383370854
14.879999999999875 -1420.1694536490083
14.909999999999874 -1392.609324194353
14.939999999999873 -1367.3312179823038
14.969999999999873 -1346.0126223427985
14.999999999999872 -1329.9799657201952
15.029999999999871 -1320.1048816251232
15.05999999999987 -1316.7309115717248
15.08999999999987 -1319.646808596211
15.11999999999987 -1328.1459318801108
15.149999999999869 -1341.1212351270362
15.179999999999868 -1357.2054828004634
15.209999999999868 -1374.9664087246579
15.239999999999867 -1393.0746774568975
15.269999999999866 -1410.4174055667677
15.299999999999866 -1426.1820842871705
15.329999999999865 -1439.944156763689
15.359999999999864 -1451.7230500159212
15.389999999999864 -1462.0098806258998
15.419999999999863 -1471.7190197584516
15.449999999999863 -1482.0383180517977
15.479999999999862 -1494.2385601018368
15.509999999999861 -1509.4894870407165
15.53999999999986 -1528.7549429860105
15.56999999999986 -1552.6637284595813
15.59999999999986 -1581.4315201060276
15.629999999999859 -1614.834240670577
15.659999999999858 -1652.1873979427523
15.689999999999857 -1692.3644405843393
15.719999999999857 -1733.878245288749
15.749999999999856 -1774.9794730029814
15.779999999999855 -1813.8234063449518
15.809999999999855 -1848.7061531010247
15.839999999999854 -1878.139117488622
15.869999999999854 -1900.9147279386334
15.899999999999853 -1916.1560020105294
15.929999999999852 -1923.346638231215
15.959999999999852 -1922.3217110253472
15.989999999999851 -1913.2335728949352
16.01999999999985 -1896.5009001784872
16.04999999999985 -1872.7362316116269
16.079999999999853 -1842.6518436963147
16.109999999999854 -1806.9652521343185
