# Results for "element" with Id # 1547702 for search config "initial" at position: x0: 26.9263157895; y0: -12.5736842105; z0: 167.6667
# time PRESSURE
0.03 1327.096200247244
0.06 3795.1021498741084
0.09 7127.7645304975285
0.12 10984.492706821587
0.15 14992.626438156482
0.18 18781.762985947647
0.21 22016.698237232107
0.24 24426.10380545741
0.27 25824.5796953354
0.30000000000000004 26126.323783613167
0.33000000000000007 25349.380373257336
0.3600000000000001 23610.259200373486
0.3900000000000001 21109.602416625552
0.42000000000000015 18110.430483815624
0.4500000000000002 14911.22521599365
0.4800000000000002 11816.603371843441
0.5100000000000002 9108.526516416352
0.5400000000000003 7020.849942946368
0.5700000000000003 5719.555936163703
0.6000000000000003 5290.31600013631
0.6300000000000003 5734.190162737686
0.6600000000000004 6971.409660964271
0.6900000000000004 8852.430351663827
0.7200000000000004 11174.824551866477
0.7500000000000004 13704.174721006586
0.7800000000000005 16196.91801314941
0.8100000000000005 18423.056558626573
0.8400000000000005 20186.763120675143
0.8700000000000006 21343.151380702053
0.9000000000000006 21809.831819192517
0.9300000000000006 21572.325933891847
0.9600000000000006 20682.96578676357
0.9900000000000007 19253.493756066473
1.0200000000000007 17442.21341561219
1.0500000000000007 15437.07387783439
1.0800000000000007 13436.482782608555
1.1100000000000008 11629.84170321844
1.1400000000000008 10179.763442974021
1.1700000000000008 9207.672121584956
1.2000000000000008 8784.047866326579
1.2300000000000009 8924.035924338998
1.260000000000001 9588.553900962435
1.290000000000001 10690.50602830835
1.320000000000001 12105.239289065546
1.350000000000001 13684.053478136457
1.380000000000001 15269.362551838303
1.410000000000001 16710.02900994069
1.440000000000001 17875.441581832387
1.470000000000001 18667.071501165978
1.500000000000001 19026.51419943976
1.5300000000000011 18939.373721573287
1.5600000000000012 18434.764375293733
1.5900000000000012 17580.623386294938
1.6200000000000012 16475.44941576681
1.6500000000000012 15237.410349815293
1.6800000000000013 13992.004061746597
1.7100000000000013 12859.555657950194
1.7400000000000013 11943.79681096809
1.7700000000000014 11322.603771265507
1.8000000000000014 11041.696249735776
1.8300000000000014 11111.76293950255
1.8600000000000014 11509.113345966634
1.8900000000000015 12179.614279354224
1.9200000000000015 13045.364017337633
1.9500000000000015 14013.333694776318
1.9800000000000015 14985.058508139247
2.0100000000000016 15866.407602942514
2.0400000000000014 16576.495525288527
2.070000000000001 17054.915671006813
2.100000000000001 17266.6663776114
2.130000000000001 17204.383196986746
2.1600000000000006 16887.768524588108
2.1900000000000004 16360.389365332503
2.22 15684.271791778789
2.25 14932.926809177286
2.28 14183.573357071657
2.3099999999999996 13509.373074158018
2.3399999999999994 12972.449838593353
2.369999999999999 12618.348853947115
2.399999999999999 12472.409632127594
2.429999999999999 12538.310543815129
2.4599999999999986 12798.812553488591
2.4899999999999984 13218.513037205137
2.5199999999999982 13748.235558074912
2.549999999999998 14330.542474143738
2.579999999999998 14905.777893197745
2.6099999999999977 15418.02594494695
2.6399999999999975 15820.408279729574
2.6699999999999973 16079.235031132086
2.699999999999997 16176.656917766244
2.729999999999997 16111.627836611466
2.7599999999999967 15899.16277693442
2.7899999999999965 15568.043667078538
2.8199999999999963 15157.274760766126
2.849999999999996 14711.700990341504
2.879999999999996 14277.266146237667
2.9099999999999957 13896.402473881373
2.9399999999999955 13604.00537467197
2.9699999999999953 13424.365251438781
2.999999999999995 13369.313241032705
3.029999999999995 13437.703030387564
3.0599999999999947 13616.209191222275
3.0899999999999945 13881.295534483264
3.1199999999999943 14202.095337108387
3.149999999999994 14543.869194857489
3.179999999999994 14871.667023470152
3.2099999999999937 15153.818562555445
3.2399999999999936 15364.913402550257
3.2699999999999934 15487.999263636768
3.299999999999993 15515.819004164772
3.329999999999993 15451.01188344368
3.3599999999999928 15305.313831839956
3.3899999999999926 15097.887936947243
3.4199999999999924 14852.999985916043
3.449999999999992 14597.30819392747
3.479999999999992 14357.060402024223
3.509999999999992 14155.486559392273
3.5399999999999916 14010.638482111764
3.5699999999999914 13933.869853989398
3.599999999999991 13929.074149155096
3.629999999999991 13992.71463761284
3.659999999999991 14114.599538316303
3.6899999999999906 14279.282513750613
3.7199999999999904 14467.91234004593
3.7499999999999902 14660.320307586633
3.77999999999999 14837.1220600378
3.80999999999999 14981.621015202809
3.8399999999999896 15081.33258608982
3.8699999999999894 15128.996832099168
3.8999999999999893 15123.006125333739
3.929999999999989 15067.238122558221
3.959999999999989 14970.344514648321
3.9899999999999887 14844.599091665968
4.019999999999989 14704.446679571782
4.049999999999989 14564.91791526101
4.079999999999989 14440.078723481853
4.10999999999999 14341.668406707602
4.13999999999999 14278.05368575488
4.16999999999999 14253.586268015146
4.19999999999999 14268.40473521763
4.229999999999991 14318.674982954135
4.259999999999991 14397.217495998653
4.289999999999991 14494.435656577816
4.319999999999991 14599.432405658525
4.349999999999992 14701.190624392331
4.379999999999992 14789.693976597926
4.409999999999992 14856.877572058182
4.439999999999992 14897.322587732615
4.469999999999993 14908.640090937188
4.499999999999993 14891.523976693139
4.529999999999993 14849.488224206216
4.559999999999993 14788.334611111693
4.589999999999994 14715.421661623737
4.619999999999994 14638.82137193058
4.649999999999994 14566.456706862535
4.679999999999994 14505.308795224246
4.709999999999995 14460.769703553027
4.739999999999995 14436.197526214253
4.769999999999995 14432.706446266377
4.799999999999995 14449.19796334494
4.829999999999996 14482.614647486247
4.859999999999996 14528.37680001886
4.889999999999996 14580.943996323434
4.919999999999996 14634.438030522573
4.949999999999997 14683.260738711153
4.979999999999997 14722.641492096962
5.009999999999997 14749.064340677525
5.039999999999997 14760.540787611888
5.069999999999998 14756.709572522392
5.099999999999998 14738.764634648669
5.129999999999998 14709.230615437611
5.159999999999998 14671.618847640184
5.189999999999999 14630.005324642074
5.219999999999999 14588.580174914938
5.249999999999999 14551.216334780464
5.279999999999999 14521.09906729076
5.31 14500.450306964596
5.34 14490.369411447322
5.37 14490.797887083154
5.4 14500.603529702048
5.430000000000001 14517.767604712612
5.460000000000001 14539.648597790449
5.490000000000001 14563.29058343262
5.520000000000001 14585.742385046322
5.550000000000002 14604.353932403505
5.580000000000002 14617.02052647645
5.610000000000002 14622.355703588442
5.640000000000002 14619.779798746773
5.670000000000003 14609.52107987257
5.700000000000003 14592.534749251394
5.730000000000003 14570.354960185636
5.760000000000003 14544.899027078558
5.790000000000004 14518.24792017639
5.820000000000004 14492.426056182956
5.850000000000004 14469.202702545734
5.880000000000004 14449.93306044126
5.910000000000005 14435.451820684151
5.940000000000005 14426.026520356958
5.970000000000005 14421.37140780027
6.000000000000005 14420.715213571506
6.030000000000006 14422.912469441866
6.060000000000006 14426.583978878552
6.090000000000006 14430.270836488096
6.120000000000006 14432.5851267832
6.150000000000007 14432.342688337174
6.180000000000007 14428.666230678342
6.210000000000007 14421.050426118076
6.240000000000007 14409.385630605562
6.270000000000008 14393.94136917229
6.300000000000008 14375.313174849676
6.330000000000008 14354.341163385037
6.360000000000008 14332.010451645183
6.390000000000009 14309.344863802155
6.420000000000009 14287.304548098724
6.450000000000009 14266.696832193584
6.480000000000009 14248.109499871407
6.51000000000001 14231.870301261513
6.54000000000001 14218.034766628518
6.57000000000001 14206.40154839375
6.60000000000001 14196.551392580754
6.6300000000000106 14187.904798991975
6.660000000000011 14179.790954120192
6.690000000000011 14171.52030275733
6.720000000000011 14162.453321940691
6.7500000000000115 14152.060186729053
6.780000000000012 14139.966149395694
6.810000000000012 14125.978753141857
6.840000000000012 14110.096218300514
6.8700000000000125 14092.49694230682
6.900000000000013 14073.512331671378
6.930000000000013 14053.587129040536
6.960000000000013 14033.231118185184
6.9900000000000135 14012.967874414557
7.020000000000014 13993.286122344756
7.050000000000014 13974.59697649775
7.080000000000014 13957.201692963326
7.1100000000000145 13941.27166065808
7.140000000000015 13926.842172015957
7.170000000000015 13913.819976347577
7.200000000000015 13902.002304443344
7.2300000000000155 13891.104704913832
7.260000000000016 13880.795546158373
7.290000000000016 13870.732402667523
7.320000000000016 13860.59721489278
7.3500000000000165 13850.127301078337
7.380000000000017 13839.139590857932
7.410000000000017 13827.546070284383
7.440000000000017 13815.359622399474
7.4700000000000175 13802.689312234961
7.500000000000018 13789.727032030563
7.530000000000018 13776.726942913749
7.560000000000018 13763.97980901214
7.5900000000000185 13751.784462719295
7.620000000000019 13740.419317856895
7.650000000000019 13730.11664078163
7.680000000000019 13721.043177512112
7.7100000000000195 13713.288201742575
7.74000000000002 13706.858822916702
7.77000000000002 13701.683213109985
7.80000000000002 13697.621601257704
7.8300000000000205 13694.48351161718
7.860000000000021 13692.04881035538
7.890000000000021 13690.09040448039
7.920000000000021 13688.39671420027
7.9500000000000215 13686.792190284661
7.980000000000022 13685.152825011814
8.010000000000021 13683.415897349598
8.04000000000002 13681.584021556624
8.07000000000002 13679.722472240424
8.10000000000002 13677.949754569678
8.130000000000019 13676.422411769076
8.160000000000018 13675.317461289234
8.190000000000017 13674.812515835192
8.220000000000017 13675.066781362535
8.250000000000016 13676.205000113265
8.280000000000015 13678.304613708318
8.310000000000015 13681.388348198494
8.340000000000014 13685.422673740868
8.370000000000013 13690.322070355782
8.400000000000013 13695.958139375005
8.430000000000012 13702.17266422241
8.460000000000012 13708.793279567124
8.49000000000001 13715.649643975059
8.52000000000001 13722.588787436676
8.55000000000001 13729.487906153503
8.580000000000009 13736.263920296247
8.610000000000008 13742.878859746748
8.640000000000008 13749.339338090618
8.670000000000007 13755.691744806176
8.700000000000006 13762.012934675977
8.730000000000006 13768.39800001491
8.760000000000005 13774.946505589389
8.790000000000004 13781.7486660238
8.820000000000004 13788.873176550123
8.850000000000003 13796.35801996228
8.880000000000003 13804.20484771971
8.910000000000002 13812.37724597205
8.940000000000001 13820.80333978498
8.97 13829.382436117778
9.0 13837.994843225475
9.03 13846.513314352245
9.059999999999999 13854.813950049493
9.089999999999998 13862.787871010883
9.119999999999997 13870.3498491966
9.149999999999997 13877.443845969736
9.179999999999996 13884.045933742596
9.209999999999996 13890.16327764183
9.239999999999995 13895.829945608639
9.269999999999994 13901.099656946739
9.299999999999994 13906.038004817381
9.329999999999993 13910.712354819594
9.359999999999992 13915.182447695279
9.389999999999992 13919.49120749236
9.419999999999991 13923.657892581547
9.44999999999999 13927.673755550675
9.47999999999999 13931.50223307987
9.50999999999999 13935.08177445122
9.539999999999988 13938.331766456611
9.569999999999988 13941.16091383415
9.599999999999987 13943.476770799458
9.629999999999987 13945.194833443777
9.659999999999986 13946.245400152824
9.689999999999985 13946.577154796958
9.719999999999985 13946.160989285067
9.749999999999984 13944.992650655773
9.779999999999983 13943.093028231222
9.809999999999983 13940.503486551603
9.839999999999982 13937.280413555029
9.869999999999981 13933.48941229775
9.89999999999998 13929.199265141138
9.92999999999998 13924.475277061943
9.95999999999998 13919.371855144069
9.989999999999979 13913.929464850873
10.019999999999978 12740.901692219775
10.049999999999978 10032.136420767472
10.079999999999977 6209.021297035293
10.109999999999976 1798.9890701580393
10.139999999999976 -2632.3706112731884
10.169999999999975 -6552.187129729247
10.199999999999974 -9523.156231383422
10.229999999999974 -11250.42006504444
10.259999999999973 -11607.818102999812
10.289999999999973 -10641.962472818692
10.319999999999972 -8555.341867816689
10.349999999999971 -5671.828102490537
10.37999999999997 -2389.786247871619
10.40999999999997 870.8696272779533
10.43999999999997 3720.8647820827327
10.469999999999969 5846.595350735338
10.499999999999968 7042.863419676096
10.529999999999967 7230.086724458229
10.559999999999967 6454.935462648581
10.589999999999966 4875.58929356153
10.619999999999965 2734.5782653251235
10.649999999999965 323.53836701008623
10.679999999999964 -2055.2110436824205
10.709999999999964 -4125.3811223908715
10.739999999999963 -5667.465822589613
10.769999999999962 -6540.3652663661605
10.799999999999962 -6692.070039013821
10.829999999999961 -6159.031355163784
10.85999999999996 -5055.214075766439
10.88999999999996 -3552.8934803074017
10.919999999999959 -1858.0945004879245
10.949999999999958 -183.93818849147
10.979999999999958 1274.8404735398265
11.009999999999957 2363.300975214271
11.039999999999957 2981.425409130024
11.069999999999956 3091.64873723207
11.099999999999955 2718.468160836453
11.129999999999955 1940.7874153470725
11.159999999999954 878.4452770379498
11.189999999999953 -325.00536259363344
11.219999999999953 -1520.927203309879
11.249999999999952 -2573.3197002301235
11.279999999999951 -3373.616490370717
11.30999999999995 -3851.0646226077733
11.33999999999995 -3977.842316129984
11.36999999999995 -3768.767206026673
11.399999999999949 -3276.089752439213
11.429999999999948 -2580.388997129414
11.459999999999948 -1778.963392970431
11.489999999999947 -973.2716188447637
11.519999999999946 -256.95210175245114
11.549999999999946 294.2455011056487
11.579999999999945 629.6238851279111
11.609999999999944 727.2180377995463
11.639999999999944 593.8766820613602
11.669999999999943 262.0409026649152
11.699999999999942 -216.12104413122555
11.729999999999942 -776.3230417679341
11.759999999999941 -1350.4863013911465
11.78999999999994 -1874.7618688568189
11.81999999999994 -2296.373982870949
11.84999999999994 -2578.6071988926246
11.879999999999939 -2703.536326577195
11.909999999999938 -2672.3937778449426
11.939999999999937 -2503.7371274682896
11.969999999999937 -2229.8345342365924
11.999999999999936 -1891.8353160834054
12.029999999999935 -1534.3799650785054
12.059999999999935 -1200.3048727962787
12.089999999999934 -926.0398404762998
12.119999999999933 -738.1450021990737
12.149999999999933 -651.2743587118102
12.179999999999932 -667.6441156816372
12.209999999999932 -777.9317125705302
12.239999999999931 -963.3587207596926
12.26999999999993 -1198.616969727207
12.29999999999993 -1455.2434764867617
12.329999999999929 -1705.028599899193
12.359999999999928 -1923.0697143021441
12.389999999999928 -2090.1741278232194
12.419999999999927 -2194.406511410094
12.449999999999926 -2231.701781159308
12.479999999999926 -2205.565005759079
12.509999999999925 -2125.9905709060918
12.539999999999925 -2007.7868877954043
12.569999999999924 -1868.5456405393625
12.599999999999923 -1726.514933345657
12.629999999999923 -1598.6132881022525
12.659999999999922 -1498.7834761567867
12.689999999999921 -1436.816878009123
12.71999999999992 -1417.7297609527075
12.74999999999992 -1441.6996906734403
12.77999999999992 -1504.5071579216399
12.809999999999919 -1598.378944382769
12.839999999999918 -1713.119265658689
12.869999999999918 -1837.3655365834884
12.899999999999917 -1959.8348248539473
12.929999999999916 -2070.4424346112937
12.959999999999916 -2161.194503766623
12.989999999999915 -2226.786159667349
13.019999999999914 -2264.879962969048
13.049999999999914 -2276.072312829634
13.079999999999913 -2263.5830814265137
13.109999999999912 -2232.7293644592996
13.139999999999912 -2190.253395032367
13.169999999999911 -2143.577629477271
13.19999999999991 -2100.060897367818
13.22999999999991 -2066.3274230676534
13.25999999999991 -2047.7197486645032
13.289999999999909 -2047.9162850827067
13.319999999999908 -2068.7195552008698
13.349999999999907 -2110.023400305625
13.379999999999907 -2169.9548774340496
13.409999999999906 -2245.1360847559636
13.439999999999905 -2331.02391192864
13.469999999999905 -2422.328372398346
13.499999999999904 -2513.472012710776
13.529999999999903 -2599.033279994308
13.559999999999903 -2674.1553932597435
13.589999999999902 -2734.9047189933203
13.619999999999902 -2778.5464964111134
13.6499999999999 -2803.718575238904
13.6799999999999 -2810.500966068196
13.7099999999999 -2800.3661094998597
13.739999999999899 -2776.001116007133
13.769999999999898 -2741.0518998283696
13.799999999999898 -2699.7507928468985
13.829999999999897 -2656.459229544736
13.859999999999896 -2615.23315946339
13.889999999999896 -2579.4346707220475
13.919999999999895 -2551.3840406345576
13.949999999999894 -2532.145321510579
13.979999999999894 -2521.3666082771715
14.009999999999893 -2517.299755788966
14.039999999999893 -2516.9920428183746
14.069999999999892 -2516.67396998729
14.099999999999891 -2512.2972350196337
14.12999999999989 -2500.1213400472943
14.15999999999989 -2477.2192884797555
14.18999999999989 -2441.819966106032
14.219999999999889 -2393.4932741747907
14.249999999999888 -2333.163625462612
14.279999999999887 -2262.9656245151095
14.309999999999887 -2185.9661739657313
14.339999999999886 -2105.8257718661157
14.369999999999886 -2026.4290719565415
14.399999999999885 -1951.5270677627782
14.429999999999884 -1884.4060755162425
14.459999999999884 -1827.5906780116393
14.489999999999883 -1782.6305491012013
14.519999999999882 -1749.9911740149487
14.549999999999882 -1729.067104763914
14.579999999999881 -1718.3133933709375
14.60999999999988 -1715.4928344442465
14.63999999999988 -1717.94661621967
14.66999999999988 -1722.9002306237694
14.699999999999878 -1727.7599569271908
14.729999999999878 -1730.3975610334926
14.759999999999877 -1729.344858598644
14.789999999999877 -1723.9146999747913
14.819999999999876 -1714.2409473547798
14.849999999999875 -1701.1970100632907
14.879999999999875 -1686.2435420855027
14.909999999999874 -1671.1869822025353
14.939999999999873 -1657.909312424409
14.969999999999873 -1648.1443307130562
14.999999999999872 -1643.285547058485
15.029999999999871 -1644.2509967950452
15.05999999999987 -1651.3772187071827
15.08999999999987 -1664.403355574477
15.11999999999987 -1682.5111255549104
15.149999999999869 -1704.4089497412263
15.179999999999868 -1728.4920296033106
15.209999999999868 -1753.07703110867
15.239999999999867 -1776.6395911986829
15.269999999999866 -1797.9372698716122
15.299999999999866 -1816.0841356383016
15.329999999999865 -1830.6025325589665
15.359999999999864 -1841.4610517153315
15.389999999999864 -1849.0790060121378
15.419999999999863 -1854.3043059535055
15.449999999999863 -1858.2738766491875
15.479999999999862 -1862.213367233921
15.509999999999861 -1867.2550889274385
15.53999999999986 -1874.3057428481386
15.56999999999986 -1883.9148756644115
15.59999999999986 -1896.201310999727
15.629999999999859 -1910.8392980549238
15.659999999999858 -1927.0757385287338
15.689999999999857 -1943.777550803454
15.719999999999857 -1959.525353667325
15.749999999999856 -1972.7424897079304
15.779999999999855 -1981.8152777075952
15.809999999999855 -1985.2818624441984
15.839999999999854 -1981.9288508059328
15.869999999999854 -1970.874087065271
15.899999999999853 -1951.6327353781387
15.929999999999852 -1924.1375757942108
15.959999999999852 -1888.7279244560755
15.989999999999851 -1846.0844601521364
16.01999999999985 -1797.1216175704903
16.04999999999985 -1742.90246781135
16.079999999999853 -1684.5260632418492
