# Results for "element" with Id # 1932510 for search config "initial" at position: x0: 20.5473684211; y0: -18.9526315789; z0: 167.6667
# time PRESSURE
0.03 1330.7173372011653
0.06 3805.4776545803497
0.09 7147.294926195477
0.12 11014.665652607053
0.15 15033.914923619537
0.18 18833.607559156535
0.21 22077.574506999437
0.24 24493.672503815484
0.27 25895.911101390375
0.30000000000000004 26198.180959145015
0.33000000000000007 25418.537589613756
0.3600000000000001 23673.824897886545
0.3900000000000001 21165.31261359199
0.42000000000000015 18156.87832535072
0.4500000000000002 14947.997713552322
0.4800000000000002 11844.306692096006
0.5100000000000002 9128.695729851737
0.5400000000000003 7035.755447052703
0.5700000000000003 5731.933072739648
0.6000000000000003 5303.053859118998
0.6300000000000003 5750.017327396066
0.6600000000000004 6992.611542483874
0.6900000000000004 8880.623664592094
0.7200000000000004 11210.806992495553
0.7500000000000004 13747.860163524874
0.7800000000000005 16247.362192421893
0.8100000000000005 18478.573166507707
0.8400000000000005 20245.123559592004
0.8700000000000006 21401.85201481139
0.9000000000000006 21866.40038671765
0.9300000000000006 21624.628514422373
0.9600000000000006 20729.468716259216
0.9900000000000007 19293.440526591872
1.0200000000000007 17475.687562950618
1.0500000000000007 15464.940716721776
1.0800000000000007 13460.22435134287
1.1100000000000008 11651.316980922953
1.1400000000000008 10200.935402361976
1.1700000000000008 9230.343538993615
1.2000000000000008 8809.641838899079
1.2300000000000009 8953.44593551222
1.260000000000001 9622.077611011504
1.290000000000001 10727.863868191649
1.320000000000001 12145.669626108967
1.350000000000001 13726.465823198345
1.380000000000001 15312.522913664206
1.410000000000001 16752.74729270809
1.440000000000001 17916.731460135263
1.470000000000001 18706.259393903325
1.500000000000001 19063.28413482919
1.5300000000000011 18973.74844480053
1.5600000000000012 18467.034373001738
1.5900000000000012 17611.24509552872
1.6200000000000012 16504.936384662717
1.6500000000000012 15266.239097958629
1.6800000000000013 14020.54986034699
1.7100000000000013 12888.064723921696
1.7400000000000013 11972.392689614844
1.7700000000000014 11351.318604263199
1.8000000000000014 11070.51415572269
1.8300000000000014 11140.66174821938
1.8600000000000014 11538.09421223166
1.8900000000000015 12208.7126187438
1.9200000000000015 13074.64110956879
1.9500000000000015 14042.853180765123
1.9800000000000015 15014.855333462176
2.0100000000000016 15896.458333300703
2.0400000000000014 16606.698256270625
2.070000000000001 17085.08539474637
2.100000000000001 17296.547821255204
2.130000000000001 17233.679664569838
2.1600000000000006 16916.181452583485
2.1900000000000004 16387.661508199246
2.22 15710.226186360946
2.25 14957.494307315179
2.28 14206.804181387968
2.3099999999999996 13531.430530022491
2.3399999999999994 12993.58765104393
2.369999999999999 12638.876045155503
2.399999999999999 12492.648751515344
2.429999999999999 12558.55536679701
2.4599999999999986 12819.291268956624
2.4899999999999984 13239.361375277429
2.5199999999999982 13769.482608559305
2.549999999999998 14352.110305260141
2.579999999999998 14927.49389740493
2.6099999999999977 15439.64561501635
2.6399999999999975 15841.644947905192
2.6699999999999973 16099.792629702795
2.699999999999997 16196.261822504639
2.729999999999997 16130.056215520617
2.7599999999999967 15916.260534249153
2.7899999999999965 15583.737237221867
2.8199999999999963 15171.572085336084
2.849999999999996 14724.682904757285
2.879999999999996 14289.069753796342
2.9099999999999957 13907.198680008285
2.9399999999999955 13613.973501013199
2.9699999999999953 13433.667782195618
2.999999999999995 13378.073572670548
3.029999999999995 13445.988645850653
3.0599999999999947 13624.022007287527
3.0899999999999945 13888.570027566937
3.1199999999999943 14208.70416871977
3.149999999999994 14549.6353403983
3.179999999999994 14876.38049608516
3.2099999999999937 15157.255588356402
3.2399999999999936 15366.855709260468
3.2699999999999934 15488.251355770826
3.299999999999993 15514.221671512048
3.329999999999993 15447.450685211763
3.3599999999999928 15299.72199779712
3.3899999999999926 15090.243812918447
3.4199999999999924 14843.319734995326
3.449999999999992 14585.634808517967
3.479999999999992 14343.450417880478
3.509999999999992 14139.996229277709
3.5399999999999916 13993.31093558954
3.5699999999999914 13914.724375254436
3.599999999999991 13908.098756744233
3.629999999999991 13969.862520556711
3.659999999999991 14089.789429562628
3.6899999999999906 14252.40286512369
3.7199999999999904 14438.828477859464
3.7499999999999902 14628.88371955545
3.77999999999999 14803.180662351702
3.80999999999999 14945.029514577946
3.8399999999999896 15041.961969379705
3.8699999999999894 15086.74190391532
3.8999999999999893 15077.790012878428
3.929999999999989 15019.013305897002
3.959999999999989 14919.090729517022
3.9899999999999887 14790.318662373173
4.019999999999989 14647.15832812011
4.049999999999989 14504.649118443918
4.079999999999989 14376.856652674545
4.10999999999999 14275.51152500838
4.13999999999999 14208.965317766002
4.16999999999999 14181.55035701048
4.19999999999999 14193.383533139897
4.229999999999991 14240.609223805335
4.259999999999991 14316.028853119962
4.289999999999991 14410.031108651841
4.319999999999991 14511.710182285406
4.349999999999992 14610.046611761234
4.379999999999992 14695.027804337133
4.409999999999992 14758.598011116475
4.439999999999992 14795.351901571084
4.469999999999993 14802.916919270447
4.499999999999993 14782.004300371886
4.529999999999993 14736.144304020198
4.559999999999993 14671.152191187208
4.589999999999994 14594.39619391772
4.619999999999994 14513.95391531353
4.649999999999994 14437.74979096603
4.679999999999994 14372.762360932677
4.709999999999995 14324.377564656079
4.739999999999995 14295.944798814733
4.769999999999995 14288.568466967125
4.799999999999995 14301.140675371938
4.829999999999996 14330.595968444173
4.859999999999996 14372.347991116325
4.889999999999996 14420.851987406102
4.919999999999996 14470.227975205724
4.949999999999997 14514.877824251369
4.979999999999997 14550.033154889443
5.009999999999997 14572.182665116708
5.039999999999997 14579.34428768647
5.069999999999998 14571.163925827748
5.099999999999998 14548.84251013519
5.129999999999998 14514.910408495845
5.159999999999998 14472.88274199508
5.189999999999999 14426.8375388036
5.219999999999999 14380.965740389958
5.249999999999999 14339.139811596873
5.279999999999999 14304.54372054996
5.31 14279.398103533236
5.34 14264.80203828906
5.37 14260.698537084194
5.4 14265.959213061968
5.430000000000001 14278.571616964216
5.460000000000001 14295.903631140893
5.490000000000001 14315.011231638387
5.520000000000001 14332.957178762435
5.550000000000002 14347.106971449148
5.580000000000002 14355.372311913152
5.610000000000002 14356.383307791344
5.640000000000002 14349.576722437454
5.670000000000003 14335.196977315467
5.700000000000003 14314.215149617865
5.730000000000003 14288.18074551074
5.760000000000003 14259.025407746401
5.790000000000004 14228.84322562881
5.820000000000004 14199.670920585602
5.850000000000004 14173.289779944906
5.880000000000004 14151.067280692258
5.910000000000005 14133.850880750646
5.940000000000005 14121.921280564718
5.970000000000005 14115.006205932259
6.000000000000005 14112.34813069299
6.030000000000006 14112.815714047407
6.060000000000006 14115.044289410269
6.090000000000006 14117.589854307449
6.120000000000006 14119.079783989104
6.150000000000007 14118.345464462414
6.180000000000007 14114.52543146757
6.210000000000007 14107.130390829529
6.240000000000007 14096.066402023724
6.270000000000008 14081.618017655543
6.300000000000008 14064.395021825736
6.330000000000008 14045.250892133055
6.360000000000008 14025.183035490752
6.390000000000009 14005.226516356226
6.420000000000009 13986.35168145362
6.450000000000009 13969.375086517754
6.480000000000009 13954.892884221154
6.51000000000001 13943.24023069003
6.54000000000001 13934.478828264253
6.57000000000001 13928.412218528
6.60000000000001 13924.624290850083
6.6300000000000106 13922.536734484644
6.660000000000011 13921.477857239272
6.690000000000011 13920.754498629794
6.720000000000011 13919.720379989692
6.7500000000000115 13917.835792872773
6.780000000000012 13914.713205446682
6.810000000000012 13910.144941699642
6.840000000000012 13904.111919986619
6.8700000000000125 13896.773320253653
6.900000000000013 13888.439598531026
6.930000000000013 13879.533108352773
6.960000000000013 13870.540005779518
6.9900000000000135 13861.959182341776
7.020000000000014 13854.253620436586
7.050000000000014 13847.807584793134
7.080000000000014 13842.89415735093
7.1100000000000145 13839.654949881628
7.140000000000015 13838.093799465856
7.170000000000015 13838.084457375558
7.200000000000015 13839.38976209251
7.2300000000000155 13841.689791225379
7.260000000000016 13844.616581547429
7.290000000000016 13847.790494920506
7.320000000000016 13850.855470150924
7.3500000000000165 13853.510245477855
7.380000000000017 13855.532785656276
7.410000000000017 13856.796027726927
7.440000000000017 13857.274096408002
7.4700000000000175 13857.03804461559
7.500000000000018 13856.243143394187
7.530000000000018 13855.109393698562
7.560000000000018 13853.89692903274
7.5900000000000185 13852.87802831344
7.620000000000019 13852.308541377535
7.650000000000019 13852.40163497117
7.680000000000019 13853.308045300928
7.7100000000000195 13855.103853257271
7.74000000000002 13857.785481303816
7.77000000000002 13861.272283717348
7.80000000000002 13865.417318060307
7.8300000000000205 13870.024284345538
7.860000000000021 13874.868378092064
7.890000000000021 13879.718808424106
7.920000000000021 13884.361171569373
7.9500000000000215 13888.617860006632
7.980000000000022 13892.363219485218
8.010000000000021 13895.533110061306
8.04000000000002 13898.129295891735
8.07000000000002 13900.216759741394
8.10000000000002 13901.914125883424
8.130000000000019 13903.378622714521
8.160000000000018 13904.78885642151
8.190000000000017 13906.325376357934
8.220000000000017 13908.151804533689
8.250000000000016 13910.398735011226
8.280000000000015 13913.15086276762
8.310000000000015 13916.439415794674
8.340000000000014 13920.240524106313
8.370000000000013 13924.479546121249
8.400000000000013 13929.040322239793
8.430000000000012 13933.778415187577
8.460000000000012 13938.536967845499
8.49000000000001 13943.162928669706
8.52000000000001 13947.52238416452
8.55000000000001 13951.513229357994
8.580000000000009 13955.074549042227
8.610000000000008 13958.191894871221
8.640000000000008 13960.896321978156
8.670000000000007 13963.259152093802
8.700000000000006 13965.382295701227
8.730000000000006 13967.385656887967
8.760000000000005 13969.39303848469
8.790000000000004 13971.51805267097
8.820000000000004 13973.851608511413
8.850000000000003 13976.452502692648
8.880000000000003 13979.341737986017
8.910000000000002 13982.500852090823
8.940000000000001 13985.874570160642
8.97 13989.377548808237
9.0 13992.904245565009
9.03 13996.340615751044
9.059999999999999 13999.574938022233
9.089999999999998 14002.510324361598
9.119999999999997 14005.073649544694
9.149999999999997 14007.2210930333
9.179999999999996 14008.941374441136
9.209999999999996 14010.254864708228
9.239999999999995 14011.209492248086
9.269999999999994 14011.873950790148
9.299999999999994 14012.33014285249
9.329999999999993 14012.663348007129
9.359999999999992 14012.953252759715
9.389999999999992 14013.263756026916
9.419999999999991 14013.635146216933
9.44999999999999 14014.079335585073
9.47999999999999 14014.579784247038
9.50999999999999 14015.092290786106
9.539999999999988 14015.550748415368
9.569999999999988 14015.87684337347
9.599999999999987 14015.988233951331
9.629999999999987 14015.809701942995
9.659999999999986 14015.279750183454
9.689999999999985 14014.351867774027
9.719999999999985 14012.997539954435
9.749999999999984 14011.207572246696
9.779999999999983 14008.991670605265
9.809999999999983 14006.378146306362
9.839999999999982 14003.408036578297
9.869999999999981 14000.124602685313
9.89999999999998 13996.575164856265
9.92999999999998 13992.810550991202
9.95999999999998 13988.87275378216
9.989999999999979 13984.791513913764
10.019999999999978 12808.684360282568
10.049999999999978 10091.16542044505
10.079999999999977 6255.972921322979
10.109999999999976 1833.6242533402385
10.139999999999976 -2607.229107348201
10.169999999999975 -6531.53298806071
10.199999999999974 -9501.25860855226
10.229999999999974 -11222.340104735951
10.259999999999973 -11570.437338154661
10.289999999999973 -10594.221421669934
10.319999999999972 -8497.744257452387
10.349999999999971 -5605.568820429153
10.37999999999997 -2315.950667573571
10.40999999999997 951.7036642951972
10.43999999999997 3808.542381107659
10.469999999999969 5940.97737406184
10.499999999999968 7143.388183569319
10.529999999999967 7335.564859117307
10.559999999999967 6563.689923949381
10.589999999999966 4985.8722302676215
10.619999999999965 2845.074290611312
10.649999999999965 433.74083978290025
10.679999999999964 -1944.887289158507
10.709999999999964 -4013.7676739516755
10.739999999999963 -5553.000430654738
10.769999999999962 -6421.504073139586
10.799999999999962 -6567.620981556419
10.829999999999961 -6028.336290595385
10.85999999999996 -4918.175557790028
10.88999999999996 -3409.890705916825
10.919999999999959 -1709.8487938222179
10.949999999999958 -31.375144798352718
10.979999999999958 1430.7098393319907
11.009999999999957 2521.4808890972313
11.039999999999957 3141.0265414197893
11.069999999999956 3251.97474564249
11.099999999999955 2879.0885712442278
11.129999999999955 2101.5811880747283
11.159999999999954 1039.599498792905
11.189999999999953 -163.04901798035192
11.219999999999953 -1357.5731383780962
11.249999999999952 -2407.946633557319
11.279999999999951 -3205.7093698144063
11.30999999999995 -3680.3259582456403
11.33999999999995 -3804.2665699955915
11.36999999999995 -3592.6697925163207
11.399999999999949 -3098.093292946631
11.429999999999948 -2401.3756209211715
11.459999999999948 -1600.0054268200338
11.489999999999947 -795.5509372437441
11.519999999999946 -81.67974262218769
11.549999999999946 465.900691296004
11.579999999999945 796.5920882421182
11.609999999999944 888.5667512265004
11.639999999999944 748.8285768576991
11.669999999999943 409.97310477066077
11.699999999999942 -75.69512502128802
11.729999999999942 -643.7857731129393
11.759999999999941 -1226.1555780678236
11.78999999999994 -1758.930282321388
11.81999999999994 -2189.3423957987543
11.84999999999994 -2480.7099180362097
11.879999999999939 -2615.153703624246
11.909999999999938 -2593.9494635227084
11.939999999999937 -2435.679994995935
11.969999999999937 -2172.6075121989343
11.999999999999936 -1845.8354179193182
12.029999999999935 -1499.9138337496738
12.059999999999935 -1177.545879490359
12.089999999999934 -914.9929239464229
12.119999999999933 -738.6237242165136
12.149999999999933 -662.8930175621845
12.179999999999932 -689.8253767042157
12.209999999999932 -809.9271182270312
12.239999999999931 -1004.2792151543533
12.26999999999993 -1247.4696057302406
12.29999999999993 -1510.9703171228607
12.329999999999929 -1766.5450467763526
12.359999999999928 -1989.299016938514
12.389999999999928 -2160.0756021303623
12.419999999999927 -2266.995432187281
12.449999999999926 -2306.0593407095985
12.479999999999926 -2280.8394154374455
12.509999999999925 -2201.391328138329
12.539999999999925 -2082.5755401910455
12.569999999999924 -1942.0251760336291
12.599999999999923 -1798.0207345350316
12.629999999999923 -1667.508591174582
12.659999999999922 -1564.460230679309
12.689999999999921 -1498.7027986167063
12.71999999999992 -1475.3008954330337
12.74999999999992 -1494.4976374885714
12.77999999999992 -1552.160195803354
12.809999999999919 -1640.6250784730557
12.839999999999918 -1749.8257506231114
12.869999999999918 -1868.5414070697868
12.899999999999917 -1985.6334288304924
12.929999999999916 -2091.1521169382395
12.959999999999916 -2177.217323662193
12.989999999999915 -2238.607577382165
13.019999999999914 -2273.031445320518
13.049999999999914 -2281.0880666341736
13.079999999999913 -2265.9529829536855
13.109999999999912 -2232.8497005968766
13.139999999999912 -2188.3778975923638
13.169999999999911 -2139.7728353304533
13.19999999999991 -2094.170409015549
13.22999999999991 -2057.9476339514913
13.25999999999991 -2036.1900370609283
13.289999999999909 -2032.3246882710807
13.319999999999908 -2047.9243525204045
13.349999999999907 -2082.6899135482054
13.379999999999907 -2134.6121037007856
13.409999999999906 -2200.2599630070085
13.439999999999905 -2275.146535674303
13.469999999999905 -2354.1741191240753
13.499999999999904 -2432.112453470057
13.529999999999903 -2504.0520781797723
13.559999999999903 -2565.8048692068414
13.589999999999902 -2614.228064121
13.619999999999902 -2647.4385899903937
13.6499999999999 -2664.9099659509357
13.6799999999999 -2667.44966309029
13.7099999999999 -2657.0459520168506
13.739999999999899 -2636.5884347635592
13.769999999999898 -2609.5325047315464
13.799999999999898 -2579.5111782236236
13.829999999999897 -2549.947304391063
13.859999999999896 -2523.725599589352
13.889999999999896 -2502.928971361107
13.919999999999895 -2488.62712419128
13.949999999999894 -2480.8148939255675
13.979999999999894 -2478.416337838895
14.009999999999893 -2479.406434628427
14.039999999999893 -2481.019331914172
14.069999999999892 -2480.1114554554188
14.099999999999891 -2473.5982576644437
14.12999999999989 -2458.8630896357063
14.15999999999989 -2434.0805680297763
14.18999999999989 -2398.411277316802
14.219999999999889 -2352.088683383069
14.249999999999888 -2296.39296660991
14.279999999999887 -2233.505616244345
14.309999999999887 -2166.2618369762245
14.339999999999886 -2097.8479372421443
14.369999999999886 -2031.4776803473574
14.399999999999885 -1970.0938930037266
14.429999999999884 -1916.1197464644824
14.459999999999884 -1871.2533641013622
14.489999999999883 -1836.3418688132738
14.519999999999882 -1811.337499388445
14.549999999999882 -1795.346418503375
14.579999999999881 -1786.7535087705473
14.60999999999988 -1783.4408826705103
14.63999999999988 -1783.0095190958098
14.66999999999988 -1783.0357986476677
14.699999999999878 -1781.3057925887501
14.729999999999878 -1776.0531247587137
14.759999999999877 -1766.1249445356298
14.789999999999877 -1751.1004572972683
14.819999999999876 -1731.335171682523
14.849999999999875 -1707.887687153384
14.879999999999875 -1682.3713837403998
14.909999999999874 -1656.7098252736835
14.939999999999873 -1632.870777667224
14.969999999999873 -1612.6371686596653
14.999999999999872 -1597.4127298828905
15.029999999999871 -1588.0847797882634
15.05999999999987 -1584.9245410710323
15.08999999999987 -1587.5868386167053
15.11999999999987 -1595.1510195990966
15.149999999999869 -1606.2123400305738
15.179999999999868 -1619.0482713887152
15.209999999999868 -1631.8565167305426
15.239999999999867 -1643.0318307101138
15.269999999999866 -1651.2895819670825
15.299999999999866 -1655.7290140141872
15.329999999999865 -1655.8879203138363
15.359999999999864 -1651.7784765501565
15.389999999999864 -1643.8828920811159
15.419999999999863 -1633.1477674623525
15.449999999999863 -1620.8490698029734
15.479999999999862 -1608.3977690108004
15.509999999999861 -1597.1347987277695
15.53999999999986 -1588.1698751148353
15.56999999999986 -1582.2525225245759
15.59999999999986 -1579.7126258482353
15.629999999999859 -1580.447452234618
15.659999999999858 -1583.9200192694623
15.689999999999857 -1589.181125419529
15.719999999999857 -1594.9405484874064
15.749999999999856 -1599.700763511611
15.779999999999855 -1601.8877430282266
15.809999999999855 -1600.041368398995
15.839999999999854 -1592.9837813368054
15.869999999999854 -1579.8652142305107
15.899999999999853 -1560.2594286197543
15.929999999999852 -1534.16948003092
15.959999999999852 -1502.000550636168
15.989999999999851 -1464.5353339419516
16.01999999999985 -1422.8445004909504
16.04999999999985 -1378.108687484646
16.079999999999853 -1331.474233417263
