# Results for "element" with Id # 66889 for search config "initial" at position: x0: 6.19473684211; y0: -33.3052631579; z0: 167.6667
# time PRESSURE
0.03 1343.3221696403446
0.06 3841.7255041396365
0.09 7215.733823790822
0.12 11120.691527120209
0.15 15179.356144820793
0.18 19016.558442630547
0.21 22292.504498532904
0.24 24731.851994632474
0.27 26146.181310279426
0.30000000000000004 26448.049902406357
0.33000000000000007 25655.516399323245
0.3600000000000001 23886.84777153045
0.3900000000000001 21346.039170880453
0.42000000000000015 18300.668129640115
0.4500000000000002 15054.393756274361
0.4800000000000002 11916.951628210316
0.5100000000000002 9174.709665026101
0.5400000000000003 7064.696899083456
0.5700000000000003 5754.521153960392
0.6000000000000003 5329.842023956176
0.6300000000000003 5790.183361110858
0.6600000000000004 7052.987413169639
0.6900000000000004 8965.04187077429
0.7200000000000004 11319.807818408659
0.7500000000000004 13878.776805918043
0.7800000000000005 16394.77442497113
0.8100000000000005 18635.085217666354
0.8400000000000005 20402.376846617106
0.8700000000000006 21551.63793982266
0.9000000000000006 22001.707845134966
0.9300000000000006 21740.464539738296
0.9600000000000006 20823.327853296738
0.9900000000000007 19365.374052965963
1.0200000000000007 17527.997960045825
1.0500000000000007 15501.596531039428
1.0800000000000007 13486.126779525326
1.1100000000000008 11671.553365152682
1.1400000000000008 10220.131456908175
1.1700000000000008 9252.187241788852
1.2000000000000008 8836.611609036177
1.2300000000000009 8986.738019538361
1.260000000000001 9661.703640186794
1.290000000000001 10772.868823341763
1.320000000000001 12194.41681728586
1.350000000000001 13776.935319154456
1.380000000000001 15362.579766386489
1.410000000000001 16800.351152891606
1.440000000000001 17960.077126031534
1.470000000000001 18743.855065016447
1.500000000000001 19093.984410228666
1.5300000000000011 18996.76406466807
1.5600000000000012 18481.93450379047
1.5900000000000012 17617.96075248979
1.6200000000000012 16503.762196972682
1.6500000000000012 15257.823440564029
1.6800000000000013 14005.860732741812
1.7100000000000013 12868.320947648448
1.7400000000000013 11948.960147123926
1.7700000000000014 11325.578301931477
1.8000000000000014 11043.71895581022
1.8300000000000014 11113.801808245182
1.8600000000000014 11511.793450406378
1.8900000000000015 12183.172169062842
1.9200000000000015 13049.638365764738
1.9500000000000015 14017.794209491212
1.9800000000000015 14988.868446149827
2.0100000000000016 15868.510148450217
2.0400000000000014 16575.711852185927
2.070000000000001 17050.043553304375
2.100000000000001 17256.570234993505
2.130000000000001 17188.07182995968
2.1600000000000006 16864.458512760477
2.1900000000000004 16329.555256906513
2.22 15645.683367368785
2.25 14886.670769494835
2.28 14130.055748660961
2.3099999999999996 13449.296639703727
2.3399999999999994 12906.761966345712
2.369999999999999 12548.158605233399
2.399999999999999 12398.878361205265
2.429999999999999 12462.525448253156
2.4599999999999986 12721.658746309951
2.4899999999999984 13140.561304276462
2.5199999999999982 13669.662684648234
2.549999999999998 14251.098230194833
2.579999999999998 14824.805283680827
2.6099999999999977 15334.534196779134
2.6399999999999975 15733.189606395503
2.6699999999999973 15987.00960149984
2.699999999999997 16078.226325517642
2.729999999999997 16006.01611470067
2.7599999999999967 15785.725974275245
2.7899999999999965 15446.534637878114
2.8199999999999963 15027.856626927956
2.849999999999996 14574.909446222371
2.879999999999996 14133.928572413639
2.9099999999999957 13747.526434117317
2.9399999999999955 13450.652300545145
2.9699999999999953 13267.525601537764
2.999999999999995 13209.79768706771
3.029999999999995 13276.061154105768
3.0599999999999947 13452.683245997057
3.0899999999999945 13715.81166663507
3.1199999999999943 14034.290459509288
3.149999999999994 14373.148468069003
3.179999999999994 14697.283323510173
3.2099999999999937 14974.96402996563
3.2399999999999936 15180.812313570274
3.2699999999999934 15297.992076491564
3.299999999999993 15319.42920652711
3.329999999999993 15247.989509923038
3.3599999999999928 15095.652108138876
3.3899999999999926 14881.812994855663
3.4199999999999924 14630.936450269255
3.449999999999992 14369.825278129447
3.479999999999992 14124.805532673367
3.509999999999992 13919.114486711913
3.5399999999999916 13770.743703691289
3.5699999999999914 13690.929397642602
3.599999999999991 13683.406486218304
3.629999999999991 13744.458181806673
3.659999999999991 13863.711879204646
3.6899999999999906 14025.559393073509
3.7199999999999904 14211.02357251617
3.7499999999999902 14399.858408508639
3.77999999999999 14572.657027262041
3.80999999999999 14712.754175014848
3.8399999999999896 14807.743788635464
3.8699999999999894 14850.480419270925
3.8999999999999893 14839.492873722575
3.929999999999989 14778.80201446092
3.959999999999989 14677.193090167017
3.9899999999999887 14547.050091968253
4.019999999999989 14402.894675285786
4.049999999999989 14259.794321350424
4.079999999999989 14131.809599211127
4.10999999999999 14030.635021069636
4.13999999999999 13964.56077766034
4.16999999999999 13937.840639919988
4.19999999999999 13950.505690979906
4.229999999999991 13998.617237440369
4.259999999999991 14074.906052426337
4.289999999999991 14169.709461252654
4.319999999999991 14272.09392404214
4.349999999999992 14371.03796243133
4.379999999999992 14456.551464644248
4.409999999999992 14520.62185608407
4.439999999999992 14557.901652314844
4.469999999999993 14566.08311203675
4.499999999999993 14545.941564639652
4.529999999999993 14501.06389766932
4.559999999999993 14437.308700852924
4.589999999999994 14362.069811101446
4.619999999999994 14283.43113978952
4.649999999999994 14209.304805723174
4.679999999999994 14146.640545322654
4.709999999999995 14100.783137153187
4.739999999999995 14075.03423874082
4.769999999999995 14070.44988151377
4.799999999999995 14085.878283927656
4.829999999999996 14118.219280865644
4.859999999999996 14162.864459126715
4.889999999999996 14214.26216369008
4.919999999999996 14266.539655909393
4.949999999999997 14314.117586801365
4.979999999999997 14352.256223143615
5.009999999999997 14377.481329870894
5.039999999999997 14387.851696156267
5.069999999999998 14383.050470545233
5.099999999999998 14364.307579384462
5.129999999999998 14334.17154029444
5.159999999999998 14296.163642439764
5.189999999999999 14254.359270478082
5.219999999999999 14212.939038598586
5.249999999999999 14175.75744595584
5.279999999999999 14145.974582965839
5.31 14125.785793504749
5.34 14116.26819751006
5.37 14117.349705037563
5.4 14127.894854717308
5.430000000000001 14145.890082355874
5.460000000000001 14168.70620390532
5.490000000000001 14193.405343757162
5.520000000000001 14217.059467048806
5.550000000000002 14237.047097619197
5.580000000000002 14251.295553276204
5.610000000000002 14258.450189585601
5.640000000000002 14257.96053608365
5.670000000000003 14250.079739443085
5.700000000000003 14235.783545875553
5.730000000000003 14216.62284065592
5.760000000000003 14194.527715782307
5.790000000000004 14171.58601986133
5.820000000000004 14149.821711089247
5.850000000000004 14130.996565985932
5.880000000000004 14116.453895234632
5.910000000000005 14107.01611957272
5.940000000000005 14102.94176679787
5.970000000000005 14103.941405624368
6.000000000000005 14109.243518780493
6.030000000000006 14117.706621454427
6.060000000000006 14127.961395219969
6.090000000000006 14138.563933289772
6.120000000000006 14148.14444804122
6.150000000000007 14155.53659454055
6.180000000000007 14159.879061680764
6.210000000000007 14160.679721214745
6.240000000000007 14157.832981244923
6.270000000000008 14151.60308607021
6.300000000000008 14142.577868849781
6.330000000000008 14131.590461750015
6.360000000000008 14119.61861088142
6.390000000000009 14107.67588990838
6.420000000000009 14096.709630222002
6.450000000000009 14087.515235186924
6.480000000000009 14080.671458970153
6.51000000000001 14076.49887242245
6.54000000000001 14075.046480610694
6.57000000000001 14076.104833938025
6.60000000000001 14079.242957141843
6.6300000000000106 14083.865702716568
6.660000000000011 14089.283371957075
6.690000000000011 14094.78322049373
6.720000000000011 14099.696555497876
6.7500000000000115 14103.458424504328
6.780000000000012 14105.654896755561
6.810000000000012 14106.053513048222
6.840000000000012 14104.61434152828
6.8700000000000125 14101.479727124466
6.900000000000013 14096.945608230311
6.930000000000013 14091.421962352795
6.960000000000013 14085.385743729159
6.9900000000000135 14079.331450364236
7.020000000000014 14073.723744803778
7.050000000000014 14068.955880213583
7.080000000000014 14065.317670501481
7.1100000000000145 14062.97470041547
7.140000000000015 14061.960869187398
7.170000000000015 14062.185238315518
7.200000000000015 14063.448250185384
7.2300000000000155 14065.467134563069
7.260000000000016 14067.910329628012
7.290000000000016 14070.433317747196
7.320000000000016 14072.713780359087
7.3500000000000165 14074.482548471648
7.380000000000017 14075.547546587219
7.410000000000017 14075.80909695333
7.440000000000017 14075.265707591168
7.4700000000000175 14074.00939300114
7.500000000000018 14072.212614773005
7.530000000000018 14070.108332704187
7.560000000000018 14067.964779443237
7.5900000000000185 14066.057328571122
7.620000000000019 14064.640300085213
7.650000000000019 14063.92128003299
7.680000000000019 14064.041912526303
7.7100000000000195 14065.066407686054
7.74000000000002 14066.977371435758
7.77000000000002 14069.679067281775
7.80000000000002 14073.008802812888
7.8300000000000205 14076.754023096159
7.860000000000021 14080.673874989683
7.890000000000021 14084.522575713045
7.920000000000021 14088.072399160008
7.9500000000000215 14091.134302238339
7.980000000000022 14093.573772464473
8.010000000000021 14095.320234336747
8.04000000000002 14096.371126094798
8.07000000000002 14096.78926648729
8.10000000000002 14096.693090973484
8.130000000000019 14096.2414513679
8.160000000000018 14095.616217436322
8.190000000000017 14095.00287394424
8.220000000000017 14094.57133820075
8.250000000000016 14094.459383349424
8.280000000000015 14094.759444460122
8.310000000000015 14095.510855314562
8.340000000000014 14096.697703855349
8.370000000000013 14098.252889381049
8.400000000000013 14100.067874479042
8.430000000000012 14102.005899706624
8.460000000000012 14103.917935270076
8.49000000000001 14105.65903328893
8.52000000000001 14107.104033482872
8.55000000000001 14108.160245010804
8.580000000000009 14108.776500064034
8.610000000000008 14108.948022790213
8.640000000000008 14108.715547524476
8.670000000000007 14108.160320566869
8.700000000000006 14107.394718234576
8.730000000000006 14106.550572441496
8.760000000000005 14105.765638465658
8.790000000000004 14105.169490041862
8.820000000000004 14104.87066869661
8.850000000000003 14104.946906568548
8.880000000000003 14105.438994674138
8.910000000000002 14106.348674034421
8.940000000000001 14107.640582658067
8.97 14109.247884590866
9.0 14111.080704946884
9.03 14113.037544080289
9.059999999999999 14115.01645115948
9.089999999999998 14116.925840273423
9.119999999999997 14118.694038558064
9.149999999999997 14120.276088622984
9.179999999999996 14121.65799691664
9.209999999999996 14122.856377352113
9.239999999999995 14123.913651841007
9.269999999999994 14124.889939984874
9.299999999999994 14125.852139408275
9.329999999999993 14126.864559433237
9.359999999999992 14127.982765694396
9.389999999999992 14129.247943846254
9.419999999999991 14130.681037100485
9.44999999999999 14132.277474912093
9.47999999999999 14134.006200549073
9.50999999999999 14135.811342255183
9.539999999999988 14137.6172835372
9.569999999999988 14139.337033299516
9.599999999999987 14140.882144629744
9.629999999999987 14142.171341345078
9.659999999999986 14143.136256064241
9.689999999999985 14143.724408160728
9.719999999999985 14143.904445784685
9.749999999999984 14143.667591145724
9.779999999999983 14143.028760159
9.809999999999983 14142.02306948441
9.839999999999982 14140.699757622975
9.869999999999981 14139.117346937122
9.89999999999998 14137.33684017402
9.92999999999998 14135.417586104308
9.95999999999998 14133.409845484755
9.989999999999979 14131.349585167985
10.019999999999978 12945.016880406769
10.049999999999978 10200.6558432675
10.079999999999977 6326.784841135413
10.109999999999976 1861.2904027552856
10.139999999999976 -2618.701659059486
10.169999999999975 -6570.563960152458
10.199999999999974 -9551.372319244656
10.229999999999974 -11265.781542976776
10.259999999999973 -11591.697543090053
10.289999999999973 -10582.595090446828
10.319999999999972 -8448.455525265244
10.349999999999971 -5519.473002591125
10.37999999999997 -2198.215892309185
10.40999999999997 1093.3813944808683
10.43999999999997 3965.642312308418
10.469999999999969 6105.44040526882
10.499999999999968 7308.40391845626
10.529999999999967 7495.950073582119
10.559999999999967 6716.037079117432
10.589999999999966 5128.635498938374
10.619999999999965 2978.658842435081
10.649999999999965 560.5447830736209
10.679999999999964 -1820.5835899357076
10.709999999999964 -3886.167618697607
10.739999999999963 -5415.447909672872
10.769999999999962 -6267.36476702245
10.799999999999962 -6391.223097905159
10.829999999999961 -5825.76737580861
10.85999999999996 -4687.754557262683
10.88999999999996 -3152.218395283822
10.919999999999959 -1427.4458128313668
10.949999999999958 271.99038394746617
10.979999999999958 1750.8475833639247
11.009999999999957 2854.5733720349026
11.039999999999957 3484.2552836661985
11.069999999999956 3603.9120136822976
11.099999999999955 3239.823241266034
11.129999999999955 2472.601125647448
11.159999999999954 1423.4901525096307
11.189999999999953 236.97983545143714
11.219999999999953 -937.9149301279153
11.249999999999952 -1965.3799470495787
11.279999999999951 -2737.5342034859086
11.30999999999995 -3184.6862093012132
11.33999999999995 -3280.2949064819672
11.36999999999995 -3040.5058469831956
11.399999999999949 -2518.789863061238
11.429999999999948 -1796.7163192690193
11.459999999999948 -972.2660888272961
11.489999999999947 -147.22763470040266
11.519999999999946 584.7693968086228
11.549999999999946 1148.2693628303607
11.579999999999945 1493.075320393487
11.609999999999944 1597.8357311229424
11.639999999999944 1470.036754824968
11.669999999999943 1142.6970544295511
11.699999999999942 668.4302070906242
11.729999999999942 111.78292785309941
11.759999999999941 -459.1049466124904
11.78999999999994 -980.5074456461617
11.81999999999994 -1399.9063164368579
11.84999999999994 -1680.9284804869876
11.879999999999939 -1806.0142250313816
11.909999999999938 -1776.7160741054981
11.939999999999937 -1611.8098106917337
11.969999999999937 -1343.635959655305
11.999999999999936 -1013.2466534925185
12.029999999999935 -665.0168328846247
12.059999999999935 -341.377025510589
12.089999999999934 -78.26092062127458
12.119999999999933 98.2942775501867
12.149999999999933 174.12068165945507
12.179999999999932 147.39264648593104
12.209999999999932 27.688891611106914
12.239999999999931 -166.1096360907375
12.26999999999993 -408.7437185100604
12.29999999999993 -671.9250514469326
12.329999999999929 -927.7047275002104
12.359999999999928 -1151.4822742713795
12.389999999999928 -1324.3633747061976
12.419999999999927 -1434.66810837282
12.449999999999926 -1478.51012612504
12.479999999999926 -1459.4724644396435
12.509999999999925 -1387.5130954777426
12.539999999999925 -1277.2914391822742
12.569999999999924 -1146.148584365633
12.599999999999923 -1012.0042404592087
12.629999999999923 -891.4034284296097
12.659999999999922 -797.9025567728721
12.689999999999921 -740.9285807950984
12.71999999999992 -725.1859387887073
12.74999999999992 -750.61468940286
12.77999999999992 -812.8464031700149
12.809999999999919 -904.0542144099285
12.839999999999918 -1014.0731219632142
12.869999999999918 -1131.640710806574
12.899999999999917 -1245.625144714008
12.929999999999916 -1346.1208712735192
12.959999999999916 -1425.3166465602283
12.989999999999915 -1478.0748664581265
13.019999999999914 -1502.1944243560977
13.049999999999914 -1498.3613900198993
13.079999999999913 -1469.8254154450349
13.109999999999912 -1421.8613642292794
13.139999999999912 -1361.089440709653
13.169999999999911 -1294.7310180203021
13.19999999999991 -1229.876472599992
13.22999999999991 -1172.8338661310174
13.25999999999991 -1128.610367765334
13.289999999999909 -1100.5621209630565
13.319999999999908 -1090.2212471179628
13.349999999999907 -1097.3030393717677
13.379999999999907 -1119.8911529878658
13.409999999999906 -1154.7570206021817
13.439999999999905 -1197.7626484539073
13.469999999999905 -1244.329627067626
13.499999999999904 -1289.9212898617538
13.529999999999903 -1330.4846561175464
13.559999999999903 -1362.8174883417198
13.589999999999902 -1384.8351638390998
13.619999999999902 -1395.7155029517357
13.6499999999999 -1395.919751553731
13.6799999999999 -1387.0896996084307
13.7099999999999 -1371.83388645256
13.739999999999899 -1353.4272149439141
13.769999999999898 -1335.470585809866
13.799999999999898 -1321.530468805938
13.829999999999897 -1314.7965782357
13.859999999999896 -1317.8017987360604
13.889999999999896 -1332.2040662570425
13.919999999999895 -1358.641152193309
13.949999999999894 -1396.6958493426562
13.979999999999894 -1444.9457591187584
14.009999999999893 -1501.1039983220217
14.039999999999893 -1562.2118029191724
14.069999999999892 -1624.940851763208
14.099999999999891 -1685.9268616490804
14.12999999999989 -1742.0941023061234
14.15999999999989 -1790.9545961504232
14.18999999999989 -1830.8142236126457
14.219999999999889 -1860.8823380723552
14.249999999999888 -1881.2828587342967
14.279999999999887 -1892.9675292938116
14.309999999999887 -1897.5475212312726
14.339999999999886 -1897.0836379061323
14.369999999999886 -1893.8522432786735
14.399999999999885 -1890.1153877933853
14.429999999999884 -1887.9114991155122
14.459999999999884 -1888.8505205049062
14.489999999999883 -1893.9540183752144
14.519999999999882 -1903.558295341464
14.549999999999882 -1917.3061309760376
14.579999999999881 -1934.2018184360672
14.60999999999988 -1952.7496770829528
14.63999999999988 -1971.1493745599485
14.66999999999988 -1987.5391515458805
14.699999999999878 -2000.2114661271164
14.729999999999878 -2007.8179746683957
14.759999999999877 -2009.526461501437
14.789999999999877 -2005.1242196291291
14.819999999999876 -1995.0484563693337
14.849999999999875 -1980.3232187772987
14.879999999999875 -1962.431894928911
14.909999999999874 -1943.1289045978776
14.939999999999873 -1924.2386194932858
14.969999999999873 -1907.4572955141145
14.999999999999872 -1894.1715276514637
15.029999999999871 -1885.3181006723246
15.05999999999987 -1881.2815058833392
15.08999999999987 -1881.8705088142829
15.11999999999987 -1886.3491642295373
15.149999999999869 -1893.5306827716024
15.179999999999868 -1901.927935342569
15.209999999999868 -1909.9461976197165
15.239999999999867 -1916.0888883011035
15.269999999999866 -1919.1060009362213
15.299999999999866 -1918.10489731111
15.329999999999865 -1912.6346202877
15.359999999999864 -1902.721024805033
15.389999999999864 -1888.8492476639583
15.419999999999863 -1871.9211190945136
15.449999999999863 -1853.132895279821
15.479999999999862 -1833.8239503399773
15.509999999999861 -1815.3093580221187
15.53999999999986 -1798.7330167096634
15.56999999999986 -1784.9441137501021
15.59999999999986 -1774.429376371995
15.629999999999859 -1767.2900295047864
15.659999999999858 -1763.2512791008614
15.689999999999857 -1761.7077831295312
15.719999999999857 -1761.8026011904758
15.749999999999856 -1762.5383106725062
15.779999999999855 -1762.890426571033
15.809999999999855 -1761.9336148918298
15.839999999999854 -1758.9327855967153
15.869999999999854 -1753.4018813005396
15.899999999999853 -1745.1409333906236
15.929999999999852 -1734.2367872158134
15.959999999999852 -1721.0297873642578
15.989999999999851 -1706.0646917992142
16.01999999999985 -1690.0193819170263
16.04999999999985 -1673.6137176779346
16.079999999999853 -1657.5159713476676
