# Results for "element" with Id # 138968 for search config "initial" at position: x0: 31.7105263158; y0: -7.78947368421; z0: 167.6667
# time PRESSURE
0.03 1324.8735858902396
0.06 3788.732816094892
0.09 7115.775513166995
0.12 10965.97394376021
0.15 14967.292463147503
0.18 18749.961004866276
0.21 21979.36268188188
0.24 24384.660649483005
0.27 25780.807401312923
0.30000000000000004 26082.181834294177
0.33000000000000007 25306.820122020974
0.3600000000000001 23571.034695214403
0.3900000000000001 21075.099971256855
0.42000000000000015 18081.535005891383
0.4500000000000002 14888.238584113937
0.4800000000000002 11799.225016449891
0.5100000000000002 9095.899137619073
0.5400000000000003 7011.664868151838
0.5700000000000003 5712.204653425854
0.6000000000000003 5283.0686486890145
0.6300000000000003 5725.379688615398
0.6600000000000004 6959.601439598425
0.6900000000000004 8836.561447392502
0.7200000000000004 11154.301443561206
0.7500000000000004 13678.922872838313
0.7800000000000005 16167.380122804929
0.8100000000000005 18390.139080738096
0.8400000000000005 20151.73381650015
0.8700000000000006 21307.4950797021
0.9000000000000006 21775.077653541885
0.9300000000000006 21539.86544664799
0.9600000000000006 20653.886305861604
0.9900000000000007 19228.45130346284
1.0200000000000007 17421.365132108862
1.0500000000000007 15420.079993150484
1.0800000000000007 13422.576135345917
1.1100000000000008 11617.951419312487
1.1400000000000008 10168.671474227667
1.1700000000000008 9196.17831949703
1.2000000000000008 8771.120510289431
1.2300000000000009 8908.929408020862
1.260000000000001 9570.88096645827
1.290000000000001 10670.258986845161
1.320000000000001 12082.760520708325
1.350000000000001 13659.9617912809
1.380000000000001 15244.447445239013
1.410000000000001 16685.129284066374
1.440000000000001 17851.327044612342
1.470000000000001 18644.34569033276
1.500000000000001 19005.55207213537
1.5300000000000011 18920.30116643825
1.5600000000000012 18417.47863513932
1.5900000000000012 17564.845765897087
1.6200000000000012 16460.796896526073
1.6500000000000012 15223.47097794192
1.6800000000000013 13978.402548385202
1.7100000000000013 12845.999548316195
1.7400000000000013 11930.098717494904
1.7700000000000014 11308.680394114519
1.8000000000000014 11027.5489782062
1.8300000000000014 11097.447712003639
1.8600000000000014 11494.708006875306
1.8900000000000015 12165.191151587114
1.9200000000000015 13030.972933369003
1.9500000000000015 13998.997784566032
1.9800000000000015 14970.781841810498
2.0100000000000016 15852.191131377916
2.0400000000000014 16562.356063049316
2.070000000000001 17040.902191945686
2.100000000000001 17252.86883746024
2.130000000000001 17190.930806231096
2.1600000000000006 16874.817093503985
2.1900000000000004 16348.099664170559
2.22 15672.78308018317
2.25 14922.330906831783
2.28 14173.894590522099
2.3099999999999996 13500.558430648969
2.3399999999999994 12964.371618443698
2.369999999999999 12610.819771817016
2.399999999999999 12465.207924653045
2.429999999999999 12531.210989800273
2.4599999999999986 12791.618198886845
2.4899999999999984 13211.082637654003
2.5199999999999982 13740.50254560782
2.549999999999998 14322.522765664744
2.579999999999998 14897.565812614339
2.6099999999999977 15409.77934503095
2.6399999999999975 15812.325567618544
2.6699999999999973 16071.527835902965
2.699999999999997 16169.52251257603
2.729999999999997 16105.22515779549
2.7599999999999967 15893.595115765462
2.7899999999999965 15563.34974963609
2.8199999999999963 15153.42866232983
2.849999999999996 14708.620087588042
2.879999999999996 14274.825262552647
2.9099999999999957 13894.451849323592
2.9399999999999955 13602.389825502214
2.9699999999999953 13422.942108080146
2.999999999999995 13367.967131796617
3.029999999999995 13436.356190192353
3.0599999999999947 13614.826599842392
3.0899999999999945 13879.884965335645
3.1199999999999943 14200.702851773693
3.149999999999994 14542.571010650785
3.179999999999994 14870.558972956382
3.2099999999999937 15153.004418834134
3.2399999999999936 15364.493335775953
3.2699999999999934 15488.059552268143
3.299999999999993 15516.423910672087
3.329999999999993 15452.198356985602
3.3599999999999928 15307.089409538441
3.3899999999999926 15100.23184322955
3.4199999999999924 14855.867173299248
3.449999999999992 14600.635799085161
3.479999999999992 14360.77588020213
3.509999999999992 14159.516541976765
3.5399999999999916 14014.917417166474
3.5699999999999914 13938.347534718
3.599999999999991 13933.72131867503
3.629999999999991 13997.52614885322
3.659999999999991 14119.594881203135
3.6899999999999906 14284.503703077731
3.7199999999999904 14473.419633442274
3.7499999999999902 14666.186261084633
3.77999999999999 14843.424695898453
3.80999999999999 14988.436896661558
3.8399999999999896 15088.730624544438
3.8699999999999894 15137.033511416666
3.8999999999999893 15131.722586539032
3.929999999999989 15076.659349928075
3.959999999999989 14980.480497547076
3.9899999999999887 14855.447746034315
4.019999999999989 14715.998138871357
4.049999999999989 14577.159587626044
4.079999999999989 14453.000069647833
4.10999999999999 14355.265200039456
4.13999999999999 14292.331419974158
4.16999999999999 14268.562383642904
4.19999999999999 14284.109540834083
4.229999999999991 14335.151150203517
4.259999999999991 14414.51837177241
4.289999999999991 14512.622645479703
4.319999999999991 14618.57172850736
4.349999999999992 14721.349793592424
4.379999999999992 14810.938317856391
4.409999999999992 14879.267269868498
4.439999999999992 14920.910584069785
4.469999999999993 14933.47097365276
4.499999999999993 14917.633960558043
4.529999999999993 14876.906126356163
4.559999999999993 14817.083716695983
4.589999999999994 14745.52227114164
4.619999999999994 14670.293762949528
4.649999999999994 14599.324102479834
4.679999999999994 14539.600049917768
4.709999999999995 14496.52150029326
4.739999999999995 14473.455895526982
4.769999999999995 14471.527348373656
4.799999999999995 14489.646890574882
4.829999999999996 14524.765182730425
4.859999999999996 14572.307888670737
4.889999999999996 14626.737213473734
4.919999999999996 14682.175390664232
4.949999999999997 14733.021891538894
4.979999999999997 14774.501418538439
5.009999999999997 14803.09238434392
5.039999999999997 14816.801035080069
5.069999999999998 14815.261858334747
5.099999999999998 14799.666521138339
5.129999999999998 14772.53930678955
5.159999999999998 14737.392597083528
5.189999999999999 14698.305130411289
5.219999999999999 14659.471378273473
5.249999999999999 14624.769729446074
5.279999999999999 14597.39220634534
5.31 14579.568764622887
5.34 14572.407457511214
5.37 14575.858114752526
5.4 14588.795713363601
5.430000000000001 14609.206421481762
5.460000000000001 14634.451500011259
5.490000000000001 14661.576432766691
5.520000000000001 14687.629790433126
5.550000000000002 14709.95984398291
5.580000000000002 14726.459378140842
5.610000000000002 14735.739321910707
5.640000000000002 14737.21810417146
5.670000000000003 14731.123468924263
5.700000000000003 14718.41192899472
5.730000000000003 14700.620939149632
5.760000000000003 14679.672929009188
5.790000000000004 14657.65528538297
5.820000000000004 14636.599171688868
5.850000000000004 14618.279755919317
5.880000000000004 14604.056271820882
5.910000000000005 14594.764920452144
5.940000000000005 14590.671871144206
5.970000000000005 14591.486834424424
6.000000000000005 14596.430791549514
6.030000000000006 14604.347499777743
6.060000000000006 14613.844483958477
6.090000000000006 14623.447743799316
6.120000000000006 14631.7530612233
6.150000000000007 14637.559308058942
6.180000000000007 14639.971857157689
6.210000000000007 14638.467840274407
6.240000000000007 14632.920094329354
6.270000000000008 14623.580633622409
6.300000000000008 14611.027288185443
6.330000000000008 14596.082126558133
6.360000000000008 14579.711848494393
6.390000000000009 14562.921409657189
6.420000000000009 14546.651621412722
6.450000000000009 14531.690037389737
6.480000000000009 14518.604221701335
6.51000000000001 14507.701329443722
6.54000000000001 14499.016087318034
6.57000000000001 14492.326307701313
6.60000000000001 14487.192312918978
6.6300000000000106 14483.01488345191
6.660000000000011 14479.104405091915
6.690000000000011 14474.753975404294
6.720000000000011 14469.308554334462
6.7500000000000115 14462.224695243058
6.780000000000012 14453.11581717258
6.810000000000012 14441.779113513143
6.840000000000012 14428.203724449875
6.8700000000000125 14412.560110778784
6.900000000000013 14395.172720270526
6.930000000000013 14376.48019968119
6.960000000000013 14356.98707289279
6.9900000000000135 14337.212540817203
7.020000000000014 14317.641977297799
7.050000000000014 14298.684278594788
7.080000000000014 14280.63966669541
7.1100000000000145 14263.679618951806
7.140000000000015 14247.840387755808
7.170000000000015 14233.03010199464
7.200000000000015 14219.047324702744
7.2300000000000155 14205.608328764007
7.260000000000016 14192.381229298919
7.290000000000016 14179.022259822119
7.320000000000016 14165.210914781912
7.3500000000000165 14150.681023035075
7.380000000000017 14135.245236528364
7.410000000000017 14118.810828899404
7.440000000000017 14101.386022896146
7.4700000000000175 14083.075807840769
7.500000000000018 14064.069127064327
7.530000000000018 14044.618802736939
7.560000000000018 14025.016438428791
7.5900000000000185 14005.564553485727
7.620000000000019 13986.54881893766
7.650000000000019 13968.213060357997
7.680000000000019 13950.740171637393
7.7100000000000195 13934.240115689245
7.74000000000002 13918.744969813186
7.77000000000002 13904.211910337559
7.80000000000002 13890.53337453862
7.8300000000000205 13877.553386816679
7.860000000000021 13865.08767527656
7.890000000000021 13852.945538186585
7.920000000000021 13840.951533642361
7.9500000000000215 13828.96536417302
7.980000000000022 13816.897056563455
8.010000000000021 13804.71649009397
8.04000000000002 13792.457063991915
8.07000000000002 13780.212863181594
8.10000000000002 13768.129356395413
8.130000000000019 13756.388686301709
8.160000000000018 13745.19222921931
8.190000000000017 13734.740995539789
8.220000000000017 13725.216864235383
8.250000000000016 13716.766591309826
8.280000000000015 13709.488976390823
8.310000000000015 13703.427395257722
8.340000000000014 13698.568004092234
8.370000000000013 13694.843610127236
8.400000000000013 13692.142377339807
8.430000000000012 13690.320506514357
8.460000000000012 13689.21762932857
8.49000000000001 13688.672938618904
8.52000000000001 13688.540601530403
8.55000000000001 13688.702779494648
8.580000000000009 13689.079452534597
8.610000000000008 13689.633885415256
8.640000000000008 13690.3726118237
8.670000000000007 13691.341185624304
8.700000000000006 13692.615425253403
8.730000000000006 13694.28978687009
8.760000000000005 13696.464092550104
8.790000000000004 13699.23006605321
8.820000000000004 13702.659498118888
8.850000000000003 13706.795116590809
8.880000000000003 13711.64475685133
8.910000000000002 13717.179198380112
8.940000000000001 13723.334185938196
8.97 13730.016316420053
9.0 13737.112126572101
9.03 13744.498740126312
9.059999999999999 13752.054389131092
9.089999999999998 13759.669113477688
9.119999999999997 13767.252912276186
9.149999999999997 13774.741172875632
9.179999999999996 13782.097398446638
9.209999999999996 13789.312302567654
9.239999999999995 13796.3996963379
9.269999999999994 13803.38904048613
9.299999999999994 13810.317740727793
9.329999999999993 13817.221293211918
9.359999999999992 13824.124184669365
9.389999999999992 13831.031748488344
9.419999999999991 13837.924374030263
9.44999999999999 13844.754355237601
9.47999999999999 13851.446953732884
9.50999999999999 13857.904005815453
9.539999999999988 13864.0103505658
9.569999999999988 13869.642749982642
9.599999999999987 13874.680054867204
9.629999999999987 13879.012538310813
9.659999999999986 13882.549077038391
9.689999999999985 13885.222100045277
9.719999999999985 13886.992312010014
9.749999999999984 13887.851154074171
9.779999999999983 13887.820351015424
9.809999999999983 13886.945893875287
9.839999999999982 13885.290682450986
9.869999999999981 13882.926973252219
9.89999999999998 13879.929193672546
9.92999999999998 13876.366629552103
9.95999999999998 13872.295024652736
9.989999999999979 13867.752484791257
10.019999999999978 12698.990304901843
10.049999999999978 9998.367232164033
10.079999999999977 6185.07992031933
10.109999999999976 1784.3097913727115
10.139999999999976 -2640.0332252220164
10.169999999999975 -6555.806127832419
10.199999999999974 -9525.495083318727
10.229999999999974 -11253.45305986583
10.259999999999973 -11612.649881508467
10.289999999999973 -10649.139374158682
10.319999999999972 -8565.28791667538
10.349999999999971 -5685.135891712473
10.37999999999997 -2407.22568181217
10.40999999999997 848.5867377954804
10.43999999999997 3693.3970816316805
10.469999999999969 5814.173524492806
10.499999999999968 7006.266830307013
10.529999999999967 7190.399354320978
10.559999999999967 6413.1886462883085
10.589999999999966 4832.436183454494
10.619999999999965 2690.111759017911
10.649999999999965 277.2909880264083
10.679999999999964 -2104.1227109278984
10.709999999999964 -4178.047386759299
10.739999999999963 -5724.990514172014
10.769999999999962 -6603.734178399553
10.799999999999962 -6762.084929861649
10.829999999999961 -6236.284369687677
10.85999999999996 -5140.072334061532
10.88999999999996 -3645.4795080904787
10.919999999999959 -1958.2685975426757
10.949999999999958 -291.30103021987424
10.979999999999958 1160.9089596844685
11.009999999999957 2243.563372498633
11.039999999999957 2856.683187012681
11.069999999999956 2962.6373836508483
11.099999999999955 2585.777070088334
11.129999999999955 1804.8207420558922
11.159999999999954 739.4270715849361
11.189999999999953 -466.99044888543074
11.219999999999953 -1665.873055985157
11.249999999999952 -2721.2347850834126
11.279999999999951 -3524.4673342681544
11.30999999999995 -4004.732489985679
11.33999999999995 -4134.093713092773
11.36999999999995 -3927.237744964659
11.399999999999949 -3436.279127387612
11.429999999999948 -2741.6655465216463
11.459999999999948 -1940.576450159735
11.489999999999947 -1134.3707647163853
11.519999999999946 -416.61075047879706
11.549999999999946 137.00554037428012
11.579999999999945 475.8091887738909
11.609999999999944 577.843326674722
11.639999999999944 449.94771592217614
11.669999999999943 124.53807462250224
11.699999999999942 -346.25949752723415
11.729999999999942 -898.219395531056
11.759999999999941 -1463.3441904995352
11.78999999999994 -1977.8899828631993
11.81999999999994 -2389.208912251519
11.84999999999994 -2660.7318808897544
11.879999999999939 -2774.6919645011812
11.909999999999938 -2732.4840503576015
11.939999999999937 -2552.8248694634003
11.969999999999937 -2268.1308867758803
11.999999999999936 -1919.6820127947137
12.029999999999935 -1552.227184226876
12.059999999999935 -1208.6863300015877
12.089999999999934 -925.5472629411042
12.119999999999933 -729.4031623292548
12.149999999999933 -634.9169807521058
12.179999999999932 -644.2921257153065
12.209999999999932 -748.1749670660312
12.239999999999931 -927.7415735144407
12.26999999999993 -1157.6272396767122
12.29999999999993 -1409.3039963415645
12.329999999999929 -1654.49088655479
12.359999999999928 -1868.2104218818504
12.389999999999928 -2031.1945029449278
12.419999999999927 -2131.436758274731
12.449999999999926 -2164.810834631561
12.479999999999926 -2134.7747194272483
12.509999999999925 -2051.2926849747264
12.539999999999925 -1929.1605279883115
12.569999999999924 -1785.9742817949877
12.599999999999923 -1640.001659862473
12.629999999999923 -1508.1927631425979
12.659999999999922 -1404.5299450378088
12.689999999999921 -1338.8478649363542
12.71999999999992 -1316.2055776872194
12.74999999999992 -1336.8183430503843
12.77999999999992 -1396.4940255260865
12.809999999999919 -1487.4715336895367
12.839999999999918 -1599.5492817685692
12.869999999999918 -1721.3397805076138
12.899999999999917 -1841.5164428445757
12.929999999999916 -1949.933598140605
12.959999999999916 -2038.5220743331422
12.989999999999915 -2101.888958278565
13.019999999999914 -2137.597447707169
13.049999999999914 -2146.1343355928957
13.079999999999913 -2130.598023996115
13.109999999999912 -2096.168979261391
13.139999999999912 -2049.433615118076
13.169999999999911 -1997.6347794951043
13.19999999999991 -1947.9257900512484
13.22999999999991 -1906.7066041140174
13.25999999999991 -1879.0928770665523
13.289999999999909 -1868.5607691173718
13.319999999999908 -1876.772848253212
13.349999999999907 -1903.59193609338
13.379999999999907 -1947.267297759167
13.409999999999906 -2004.7337222606584
13.439999999999905 -2071.9815112238384
13.469999999999905 -2144.4801582342725
13.499999999999904 -2217.6113526053796
13.529999999999903 -2287.048523780459
13.559999999999903 -2349.0723101859635
13.589999999999902 -2400.8163346502033
13.619999999999902 -2440.43538846057
13.6499999999999 -2467.1827446368075
13.6799999999999 -2481.4080278368087
13.7099999999999 -2484.45148267006
13.739999999999899 -2478.413923966537
13.769999999999898 -2465.8623701671954
13.799999999999898 -2449.4821295732622
13.829999999999897 -2431.7112864229257
13.859999999999896 -2414.524953350239
13.889999999999896 -2399.3215210032217
13.919999999999895 -2386.853553291973
13.949999999999894 -2377.2598511142155
13.979999999999894 -2370.0338844152807
14.009999999999893 -2364.0665429557353
14.039999999999893 -2357.728338980358
14.069999999999892 -2349.0160528341717
14.099999999999891 -2335.78066026979
14.12999999999989 -2316.0025411849306
14.15999999999989 -2288.048858562887
14.18999999999989 -2250.887149051209
14.219999999999889 -2204.2552919206214
14.249999999999888 -2148.7526503054864
14.279999999999887 -2085.8439531102713
14.309999999999887 -2017.7431448553693
14.339999999999886 -1947.220205288063
14.369999999999886 -1877.3368675029624
14.399999999999885 -1811.1534030859816
14.429999999999884 -1751.4188919254814
14.459999999999884 -1700.2756924179118
14.489999999999883 -1659.042070502498
14.519999999999882 -1628.1050264971104
14.549999999999882 -1606.935697569777
14.579999999999881 -1594.2178060241868
14.60999999999988 -1588.0677367012245
14.63999999999988 -1586.2718293780704
14.66999999999988 -1586.5466698825817
14.699999999999878 -1586.793198562384
14.729999999999878 -1585.3398414871124
14.759999999999877 -1581.106777643722
14.789999999999877 -1573.6984101752255
14.819999999999876 -1563.4392643874985
14.849999999999875 -1551.2973082847286
14.879999999999875 -1538.7410339621845
14.909999999999874 -1527.519126583852
14.939999999999873 -1519.4092879658717
14.969999999999873 -1516.020221894439
14.999999999999872 -1518.6163904144591
15.029999999999871 -1527.9992642993575
15.05999999999987 -1544.4146044883496
15.08999999999987 -1567.530971376665
15.11999999999987 -1596.4839754938403
15.149999999999869 -1629.9561927831587
15.179999999999868 -1666.3268369644684
15.209999999999868 -1703.8941327495363
15.239999999999867 -1741.0763094070912
15.269999999999866 -1776.5364155283783
15.299999999999866 -1809.2767407307815
15.329999999999865 -1838.717369791272
15.359999999999864 -1864.751722437397
15.389999999999864 -1887.7675782374445
15.419999999999863 -1908.605525624875
15.449999999999863 -1928.4131440958251
15.479999999999862 -1948.4442875508244
15.509999999999861 -1969.8675111514922
15.53999999999986 -1993.6443655537946
15.56999999999986 -2020.3932989381565
15.59999999999986 -2050.3159748290445
15.629999999999859 -2083.181285237183
15.659999999999858 -2118.3236636935153
15.689999999999857 -2154.672659668504
15.719999999999857 -2190.83732720884
15.749999999999856 -2225.2111125050915
15.779999999999855 -2256.0985474361346
15.809999999999855 -2281.9260051874103
15.839999999999854 -2301.337056200723
15.869999999999854 -2313.2778402397007
15.899999999999853 -2317.0530963087517
15.929999999999852 -2312.344329982189
15.959999999999852 -2299.1925558331495
15.989999999999851 -2277.9467570113
16.01999999999985 -2249.1831093108367
16.04999999999985 -2213.611340846041
16.079999999999853 -2171.9591445926344
