# Results for "element" with Id # 28237 for search config "initial" at position: x0: 4.6; y0: -34.9; z0: 167.6667
# time PRESSURE
0.03 1345.8927981693396
0.06 3848.8918703210265
0.09 7228.987415539341
0.12 11140.968410695088
0.15 15207.007659889088
0.18 19051.328902182027
0.21 22333.539482640444
0.24 24777.76241136688
0.27 26195.177598950067
0.30000000000000004 26498.140807153482
0.33000000000000007 25704.747045910794
0.3600000000000001 23933.539078659778
0.3900000000000001 21388.985279599605
0.42000000000000015 18339.261287436457
0.4500000000000002 15088.659732916623
0.4800000000000002 11947.4969913534
0.5100000000000002 9202.59747661644
0.5400000000000003 7091.276613345823
0.5700000000000003 5781.241108210663
0.6000000000000003 5358.070537230412
0.6300000000000003 5821.058954437988
0.6600000000000004 7087.313070920288
0.6900000000000004 9003.231383784909
0.7200000000000004 11361.886813659736
0.7500000000000004 13924.434162988231
0.7800000000000005 16443.452799367118
0.8100000000000005 18686.093145141924
0.8400000000000005 20455.001534653456
0.8700000000000006 21605.239271866616
0.9000000000000006 22055.780148681944
0.9300000000000006 21794.662261826103
0.9600000000000006 20877.45962367196
0.9900000000000007 19419.37710366302
1.0200000000000007 17581.90523457797
1.0500000000000007 15555.507361738155
1.0800000000000007 13540.186982060219
1.1100000000000008 11725.94550974772
1.1400000000000008 10275.072098886314
1.1700000000000008 9307.925734990971
1.2000000000000008 8893.425319330354
1.2300000000000009 9044.91975578881
1.260000000000001 9721.540182387676
1.290000000000001 10834.611074286335
1.320000000000001 12258.245589631864
1.350000000000001 13842.928311107966
1.380000000000001 15430.686483554973
1.410000000000001 16870.382250695653
1.440000000000001 18031.71273196635
1.470000000000001 18816.6734970905
1.500000000000001 19167.508270011112
1.5300000000000011 19070.516952884616
1.5600000000000012 18555.498255802107
1.5900000000000012 17691.022776477344
1.6200000000000012 16576.144455743557
1.6500000000000012 15329.488690239097
1.6800000000000013 14076.896175030308
1.7100000000000013 12938.90298785145
1.7400000000000013 12019.310155023035
1.7700000000000014 11395.91730083344
1.8000000000000014 11114.229909176429
1.8300000000000014 11184.604635967113
1.8600000000000014 11582.935276463428
1.8900000000000015 12254.631547752771
1.9200000000000015 13121.33985769606
1.9500000000000015 14089.62786406773
1.9800000000000015 15060.70856952191
2.0100000000000016 15940.229094123002
2.0400000000000014 16647.186789755477
2.070000000000001 17121.15681099828
2.100000000000001 17327.20567022529
2.130000000000001 17258.111010079578
2.1600000000000006 16933.779930575987
2.1900000000000004 16398.038817379005
2.22 15713.22031550964
2.25 14953.177014356686
2.28 14195.485334790315
2.3099999999999996 13513.651545561937
2.3399999999999994 12970.095125117161
2.369999999999999 12610.568465316539
2.399999999999999 12460.495426178024
2.429999999999999 12523.492795046921
2.4599999999999986 12782.110025858034
2.4899999999999984 13200.59992739273
2.5199999999999982 13729.345538127804
2.549999999999998 14310.426444786965
2.579999999999998 14883.722995136879
2.6099999999999977 15392.934998459086
2.6399999999999975 15790.929160807762
2.6699999999999973 16043.922163149116
2.699999999999997 16134.142694846967
2.729999999999997 16060.780625678879
2.7599999999999967 15839.210543521913
2.7899999999999965 15498.64861510905
2.8199999999999963 15078.551821562629
2.849999999999996 14624.18011249173
2.879999999999996 14181.80682160721
2.9099999999999957 13794.073837112643
2.9399999999999955 13495.948757032793
2.9699999999999953 13311.65677613965
2.999999999999995 13252.842378307247
3.029999999999995 13318.079989978069
3.0599999999999947 13493.709925404526
3.0899999999999945 13755.847581388429
3.1199999999999943 14073.30314204125
3.149999999999994 14411.07398024991
3.179999999999994 14734.032081847614
3.2099999999999937 15010.429278199237
3.2399999999999936 15214.880120947004
3.2699999999999934 15330.551634471718
3.299999999999993 15350.38222333237
3.329999999999993 15277.257590970235
3.3599999999999928 15123.181404323117
3.3899999999999926 14907.575756495462
3.4199999999999924 14654.929566845472
3.449999999999992 14392.066144102668
3.479999999999992 14145.325979828818
3.509999999999992 13937.953624547637
3.5399999999999916 13787.940535078797
3.5699999999999914 13706.516080620802
3.599999999999991 13697.402995123446
3.629999999999991 13756.868917309897
3.659999999999991 13874.524458839744
3.6899999999999906 14034.745548192492
3.7199999999999904 14218.541767056267
3.7499999999999902 14405.657521495845
3.77999999999999 14576.680709369906
3.80999999999999 14714.945841961005
3.8399999999999896 14808.05173390793
3.8699999999999894 14848.862347309834
3.8999999999999893 14835.919086679145
3.929999999999989 14773.256916390594
3.959999999999989 14669.675614622902
3.9899999999999887 14537.572617490507
4.019999999999989 14391.480648114146
4.049999999999989 14246.475010846518
4.079999999999989 14116.620341108537
4.10999999999999 14013.61155122416
4.13999999999999 13945.73595510647
4.16999999999999 13917.24198682801
4.19999999999999 13928.153949132615
4.229999999999991 13974.525744758444
4.259999999999991 14049.081168632787
4.289999999999991 14142.152096084534
4.319999999999991 14242.801877083075
4.349999999999992 14340.008838250098
4.379999999999992 14423.78577966963
4.409999999999992 14486.12590348822
4.439999999999992 14521.689781009274
4.469999999999993 14528.179172120486
4.499999999999993 14506.379382297131
4.529999999999993 14459.886822843655
4.559999999999993 14394.56840200891
4.589999999999994 14317.82459085334
4.619999999999994 14237.743994417624
4.649999999999994 14162.241260631297
4.679999999999994 14098.266519478006
4.709999999999995 14051.163249601828
4.739999999999995 14024.230560982303
4.769999999999995 14018.52097666828
4.799999999999995 14032.878720784822
4.829999999999996 14064.199894446145
4.859999999999996 14107.873335065236
4.889999999999996 14158.346005628835
4.919999999999996 14209.746050484442
4.949999999999997 14256.497427241442
4.979999999999997 14293.864782622599
5.009999999999997 14318.376903070399
5.039999999999997 14328.09322651233
5.069999999999998 14322.699517465859
5.099999999999998 14303.43118702344
5.129999999999998 14272.845655034782
5.159999999999998 14234.476319833131
5.189999999999999 14192.406388962774
5.219999999999999 14150.816926350493
5.249999999999999 14113.55839015329
5.279999999999999 14083.78561816728
5.31 14063.687090719235
5.34 14054.32853316683
5.37 14055.621861802705
5.4 14066.4139906049
5.430000000000001 14084.676874200255
5.460000000000001 14107.773856380363
5.490000000000001 14132.767070323604
5.520000000000001 14156.731704532562
5.550000000000002 14177.047862692589
5.580000000000002 14191.643231402002
5.610000000000002 14199.163035487967
5.640000000000002 14199.053644993903
5.670000000000003 14191.562991102423
5.700000000000003 14177.66529300658
5.730000000000003 14158.912154346446
5.760000000000003 14137.232377640677
5.790000000000004 14114.710178973244
5.820000000000004 14093.365654414316
5.850000000000004 14074.95738613567
5.880000000000004 14060.824843715287
5.910000000000005 14051.786272795112
5.940000000000005 14048.098502157554
5.970000000000005 14049.475027560638
6.000000000000005 14055.149603677788
6.030000000000006 14063.983433866404
6.060000000000006 14074.604670511279
6.090000000000006 14085.564567321839
6.120000000000006 14095.489875674562
6.150000000000007 14103.219077075024
6.180000000000007 14107.901438559828
6.210000000000007 14109.05366636207
6.240000000000007 14106.576489449631
6.270000000000008 14100.738082458316
6.300000000000008 14092.126231823619
6.330000000000008 14081.571667940465
6.360000000000008 14070.05000916664
6.390000000000009 14058.572107681559
6.420000000000009 14048.083100644228
6.450000000000009 14039.380976488244
6.480000000000009 14033.05113721628
6.51000000000001 14029.4209402636
6.54000000000001 14028.546392373903
6.57000000000001 14030.223881247446
6.60000000000001 14034.028072206604
6.6300000000000106 14039.371710002892
6.660000000000011 14045.576249411295
6.690000000000011 14051.943484844922
6.720000000000011 14057.820790452915
6.7500000000000115 14062.656626090404
6.780000000000012 14066.04543427622
6.810000000000012 14067.75850037509
6.840000000000012 14067.75501823901
6.8700000000000125 14066.173052835895
6.900000000000013 14063.302703067944
6.930000000000013 14059.545852054174
6.960000000000013 14055.367345655872
6.9900000000000135 14051.24409013625
7.020000000000014 14047.617717246021
7.050000000000014 14044.854881874384
7.080000000000014 14043.217774708042
7.1100000000000145 14042.845689820442
7.140000000000015 14043.749272923875
7.170000000000015 14045.818309528111
7.200000000000015 14048.837360285548
7.2300000000000155 14052.5100527197
7.260000000000016 14056.493173263792
7.290000000000016 14060.432252940995
7.320000000000016 14063.996680766279
7.3500000000000165 14066.910608927938
7.380000000000017 14068.976870195647
7.410000000000017 14070.092366751978
7.440000000000017 14070.253922664364
7.4700000000000175 14069.55351740033
7.500000000000018 14068.16499913721
7.530000000000018 14066.323809903191
7.560000000000018 14064.301628965783
7.5900000000000185 14062.378415883244
7.620000000000019 14060.81454795081
7.650000000000019 14059.825286855175
7.680000000000019 14059.561471538542
7.7100000000000195 14060.097896346724
7.74000000000002 14061.428941691896
7.77000000000002 14063.471487751502
7.80000000000002 14066.07576114954
7.8300000000000205 14069.04169675045
7.860000000000021 14072.139993092791
7.890000000000021 14075.135065924125
7.920000000000021 14077.80766369915
7.9500000000000215 14079.975115219135
7.980000000000022 14081.507057982297
8.010000000000021 14082.334936930063
8.04000000000002 14082.456177450209
8.07000000000002 14081.931956106086
8.10000000000002 14080.878014249767
8.130000000000019 14079.449980496594
8.160000000000018 14077.82642846684
8.190000000000017 14076.189833640685
8.220000000000017 14074.70767081747
8.250000000000016 14073.516073388895
8.280000000000015 14072.7068386344
8.310000000000015 14072.319787239769
8.340000000000014 14072.34047202089
8.370000000000013 14072.704001311315
8.400000000000013 14073.304762174523
8.430000000000012 14074.009391334288
8.460000000000012 14074.67254567019
8.49000000000001 14075.152965239911
8.52000000000001 14075.329365654683
8.55000000000001 14075.113091810403
8.580000000000009 14074.456723739373
8.610000000000008 14073.358789072669
8.640000000000008 14071.862903142453
8.670000000000007 14070.052765780445
8.700000000000006 14068.042782839264
8.730000000000006 14065.966824477506
8.760000000000005 14063.96479424054
8.790000000000004 14062.168282546001
8.820000000000004 14060.687672681386
8.850000000000003 14059.602532290643
8.880000000000003 14058.955766940511
8.910000000000002 14058.751819765703
8.940000000000001 14058.95876268148
8.97 14059.513823891672
9.0 14060.332324871833
9.03 14061.319408586007
9.059999999999999 14062.3810415268
9.089999999999998 14063.434178231866
9.119999999999997 14064.41602512958
9.149999999999997 14065.291187259038
9.179999999999996 14066.056013148172
9.209999999999996 14066.738067819697
9.239999999999995 14067.391188254169
9.269999999999994 14068.087439709241
9.299999999999994 14068.905802950545
9.329999999999993 14069.922628412114
9.359999999999992 14071.205161657868
9.389999999999992 14072.806004549398
9.419999999999991 14074.756783283217
9.44999999999999 14077.062678822189
9.47999999999999 14079.701161884648
9.50999999999999 14082.62360224451
9.539999999999988 14085.760344584856
9.569999999999988 14089.029060731558
9.599999999999987 14092.344211001224
9.629999999999987 14095.625107390206
9.659999999999986 14098.80131507401
9.689999999999985 14101.814448470972
9.719999999999985 14104.623435029504
9.749999999999984 14107.206457530287
9.779999999999983 14109.562883544659
9.809999999999983 14111.709050161367
9.839999999999982 14113.671841696101
9.869999999999981 14115.483928367012
9.89999999999998 14117.17521416245
9.92999999999998 14118.772804299544
9.95999999999998 14120.293326113138
9.989999999999979 14121.736128632092
10.019999999999978 12935.43234203714
10.049999999999978 10187.101222680569
10.079999999999977 6307.258254174657
10.109999999999976 1835.9177560334158
10.139999999999976 -2647.922537622858
10.169999999999975 -6600.406351490381
10.199999999999974 -9578.220126624492
10.229999999999974 -11286.40976546887
10.259999999999973 -11603.805719606728
10.289999999999973 -10584.99073681508
10.319999999999972 -8440.935553118808
10.349999999999971 -5502.532068751567
10.37999999999997 -2172.7195286130623
10.40999999999997 1126.456342525476
10.43999999999997 4005.3423925243096
10.469999999999969 6150.861960832404
10.499999999999968 7358.669414697662
10.529999999999967 7550.189963150624
10.559999999999967 6773.407450907736
10.589999999999966 5188.379540630038
10.619999999999965 3040.193354488618
10.649999999999965 623.5342732534123
10.679999999999964 -1756.1940267970535
10.709999999999964 -3820.1812867290346
10.739999999999963 -5347.512384547776
10.769999999999962 -6197.113780382899
10.799999999999962 -6318.440927558025
10.829999999999961 -5750.533366402893
10.85999999999996 -4610.538479181265
10.88999999999996 -3073.912010473007
10.919999999999959 -1349.3308595465453
10.949999999999958 348.3250726307432
10.979999999999958 1823.6234741871544
11.009999999999957 2921.9430260019453
11.039999999999957 3544.391136422316
11.069999999999956 3655.0897364645416
11.099999999999955 3280.485077923022
11.129999999999955 2501.388212038014
11.159999999999954 1439.248371466412
11.189999999999953 238.74135998550508
11.219999999999953 -950.9626710556073
11.249999999999952 -1993.928428107753
11.279999999999951 -2782.1849745136774
11.30999999999995 -3245.974044518794
11.33999999999995 -3358.6999725462124
11.36999999999995 -3136.4515024195534
11.399999999999949 -2632.6262007716464
11.429999999999948 -1928.6900908642458
11.459999999999948 -1122.4786826152172
11.489999999999947 -315.58811218282545
11.519999999999946 398.5909282604114
11.549999999999946 944.881410670645
11.579999999999945 1273.389450658281
11.609999999999944 1363.0717508616563
11.639999999999944 1221.708331471201
11.669999999999943 882.5759334268084
11.699999999999942 398.4922116869342
11.729999999999942 -165.85883849283516
11.759999999999941 -742.2728182987776
11.78999999999994 -1267.036108761848
11.81999999999994 -1687.714923307995
11.84999999999994 -1968.0867058964973
11.879999999999939 -2090.7999225434655
11.909999999999938 -2057.6635378875694
11.939999999999937 -1887.748835525916
11.969999999999937 -1613.7193852803216
11.999999999999936 -1276.963022639522
12.029999999999935 -922.1848244771879
12.059999999999935 -592.1183665549584
12.089999999999934 -322.94954435396625
12.119999999999933 -140.89524483626062
12.149999999999933 -60.214509996990266
12.179999999999932 -82.72975092679071
12.209999999999932 -198.76947221414866
12.239999999999931 -389.2854827489341
12.26999999999993 -628.7988319075782
12.29999999999993 -888.7733094148934
12.329999999999929 -1141.0073069657053
12.359999999999928 -1360.6637867420418
12.389999999999928 -1528.644545376407
12.419999999999927 -1633.1104839228024
12.449999999999926 -1670.0679796229217
12.479999999999926 -1643.0473208411995
12.509999999999925 -1562.0066000408651
12.539999999999925 -1441.6539816057787
12.569999999999924 -1299.4215745082633
12.599999999999923 -1153.3546698484738
12.629999999999923 -1020.1496847968656
12.659999999999922 -913.531373996067
12.689999999999921 -843.1048259471117
12.71999999999992 -813.7565641830797
12.74999999999992 -825.6074833161668
12.77999999999992 -874.4643420602056
12.809999999999919 -952.6665330307203
12.839999999999918 -1050.2033575321702
12.869999999999918 -1155.9538141008306
12.899999999999917 -1258.9149216659537
12.929999999999916 -1349.2980608426024
12.959999999999916 -1419.397620260444
12.989999999999915 -1464.1712172849902
13.019999999999914 -1481.5037191153888
13.049999999999914 -1472.1591282798731
13.079999999999913 -1439.458844728653
13.109999999999912 -1388.7454024588505
13.139999999999912 -1326.7049101591504
13.169999999999911 -1260.6251773124688
13.19999999999991 -1197.6653661491687
13.22999999999991 -1144.2051544546953
13.25999999999991 -1105.3247117505127
13.289999999999909 -1084.4504430533575
13.319999999999908 -1083.1757085389463
13.349999999999907 -1101.2587232274059
13.379999999999907 -1136.7942418810408
13.409999999999906 -1186.5177943517845
13.439999999999905 -1246.194361105868
13.469999999999905 -1311.0727157946599
13.499999999999904 -1376.3560772047408
13.529999999999903 -1437.6398516276577
13.559999999999903 -1491.2838012162035
13.589999999999902 -1534.694326536423
13.619999999999902 -1566.4952644535442
13.6499999999999 -1586.5816976078586
13.6799999999999 -1596.0528822610102
13.7099999999999 -1597.033283622118
13.739999999999899 -1592.400527037711
13.769999999999898 -1585.4607271545106
13.799999999999898 -1579.5934659338657
13.829999999999897 -1577.9023001561932
13.859999999999896 -1582.916745989777
13.889999999999896 -1596.3520763433025
13.919999999999895 -1618.9431603664625
13.949999999999894 -1650.3869185370493
13.979999999999894 -1689.3806508020516
14.009999999999893 -1733.758980964104
14.039999999999893 -1780.6965436764197
14.069999999999892 -1827.0175499653851
14.099999999999891 -1869.542529316022
14.12999999999989 -1905.426450633102
14.15999999999989 -1932.4688886048557
14.18999999999989 -1949.3331113160484
14.219999999999889 -1955.6674004505203
14.249999999999888 -1952.1237479700494
14.279999999999887 -1940.2720425525551
14.309999999999887 -1922.4177287343414
14.339999999999886 -1901.3537817490942
14.369999999999886 -1880.0615911525624
14.399999999999885 -1861.3995573237787
14.429999999999884 -1847.8154764401593
14.459999999999884 -1841.09031877419
14.489999999999883 -1842.1661004910006
14.519999999999882 -1851.0786399900912
14.549999999999882 -1867.006851318758
14.579999999999881 -1888.3988169658624
14.60999999999988 -1913.1761812179384
14.63999999999988 -1938.9830051169038
14.66999999999988 -1963.4617381714422
14.699999999999878 -1984.4882724210966
14.729999999999878 -2000.3814594562282
14.759999999999877 -2010.0594540456495
14.789999999999877 -2013.136834085566
14.819999999999876 -2009.944902170164
14.849999999999875 -2001.4596143250287
14.879999999999875 -1989.1632184009018
14.909999999999874 -1974.8459666727708
14.939999999999873 -1960.391672372074
14.969999999999873 -1947.5648622674134
14.999999999999872 -1937.8175245978684
15.029999999999871 -1932.140899690548
15.05999999999987 -1930.9614899886292
15.08999999999987 -1934.1177764927259
15.11999999999987 -1940.8952474590728
15.149999999999869 -1950.1243544506028
15.179999999999868 -1960.3321393714007
15.209999999999868 -1969.9324834921485
15.239999999999867 -1977.427909240664
15.269999999999866 -1981.5625841709275
15.299999999999866 -1981.4389112501224
15.329999999999865 -1976.6042338967336
15.359999999999864 -1967.08629607669
15.389999999999864 -1953.3747099598631
15.419999999999863 -1936.3730340120892
15.449999999999863 -1917.2777465766956
15.479999999999862 -1897.4296442254254
15.509999999999861 -1878.15042256501
15.53999999999986 -1860.5964687746878
15.56999999999986 -1845.6341881577314
15.59999999999986 -1833.7680195789599
15.629999999999859 -1825.1130235305527
15.659999999999858 -1819.4029492844406
15.689999999999857 -1816.0359717840813
15.719999999999857 -1814.155041587502
15.749999999999856 -1812.7603433433121
15.779999999999855 -1810.8257753559087
15.809999999999855 -1807.425621190732
15.839999999999854 -1801.8287017791174
15.869999999999854 -1793.5612477756745
15.899999999999853 -1782.4454154812765
15.929999999999852 -1768.6003900131316
15.959999999999852 -1752.4081879856622
15.989999999999851 -1734.4609368835445
16.01999999999985 -1715.4856751337766
16.04999999999985 -1696.2505364142582
16.079999999999853 -1677.4686468148034
16.109999999999854 -1659.7129518514184
