# Results for "element" with Id # 62826 for search config "initial" at position: x0: 31.3; y0: 0; z0: 210.526147368
# time PRESSURE
0.03 1325.145058520154
0.06 3789.5719249637564
0.09 7117.476001268815
0.12 10968.796853086038
0.15 14971.42058753516
0.18 18755.439589432535
0.21 21986.041783934506
0.24 24392.16346715217
0.27 25788.547723255553
0.30000000000000004 26089.44156030329
0.33000000000000007 25312.877968208446
0.3600000000000001 23575.318479593516
0.3900000000000001 21077.32261350017
0.42000000000000015 18081.776822751573
0.4500000000000002 14886.952924228963
0.4800000000000002 11797.165835024776
0.5100000000000002 9093.98958522768
0.5400000000000003 7010.838374518217
0.5700000000000003 5713.251631395486
0.6000000000000003 5286.514836864337
0.6300000000000003 5731.410476305445
0.6600000000000004 6968.0376972930935
0.6900000000000004 8846.882881621334
0.7200000000000004 11165.714499337957
0.7500000000000004 13690.466325515028
0.7800000000000005 16178.05989099568
0.8100000000000005 18399.078238620295
0.8400000000000005 20158.316876013923
0.8700000000000006 21311.48055277706
0.9000000000000006 21776.653773924932
0.9300000000000006 21539.633219618678
0.9600000000000006 20652.7653476258
0.9900000000000007 19227.52976099002
1.0200000000000007 17421.718267529694
1.0500000000000007 15422.595243572085
1.0800000000000007 13427.81685616467
1.1100000000000008 11626.081381889468
1.1400000000000008 10179.448359431226
1.1700000000000008 9209.01120925013
1.2000000000000008 8785.17644324973
1.2300000000000009 8923.268300267657
1.260000000000001 9584.598212392979
1.290000000000001 10682.613314713833
1.320000000000001 12093.271548809285
1.350000000000001 13668.46484452008
1.380000000000001 15251.099837890197
1.410000000000001 16690.36943671727
1.440000000000001 17855.794816885304
1.470000000000001 18648.77807449356
1.500000000000001 19010.671709823546
1.5300000000000011 18926.715213534633
1.5600000000000012 18425.60260235818
1.5900000000000012 17574.861034474117
1.6200000000000012 16472.6460128636
1.6500000000000012 15236.886678519983
1.6800000000000013 13992.963153871924
1.7100000000000013 12861.199927547286
1.7400000000000013 11945.425049617
1.7700000000000014 11323.677953261893
1.8000000000000014 11041.874553028358
1.8300000000000014 11110.901810065072
1.8600000000000014 11507.24527464879
1.8900000000000015 12176.91100345908
1.9200000000000015 13042.093660381202
1.9500000000000015 14009.81978340562
1.9800000000000015 14981.645075977398
2.0100000000000016 15863.431987381455
2.0400000000000014 16574.268207117304
2.070000000000001 17053.705174274568
2.100000000000001 17266.687403662527
2.130000000000001 17205.786396235144
2.1600000000000006 16890.63237237201
2.1900000000000004 16364.714221009068
2.22 15689.978799677081
2.25 14939.862737279062
2.28 14191.522849977282
2.3099999999999996 13518.078316503581
2.3399999999999994 12981.636165731134
2.369999999999999 12627.753636101303
2.399999999999999 12481.810611270748
2.429999999999999 12547.55003910928
2.4599999999999986 12807.813697153108
2.4899999999999984 13227.28666773267
2.5199999999999982 13756.875999502387
2.549999999999998 14339.213651050177
2.579999999999998 14914.691605081123
2.6099999999999977 15427.415402972494
2.6399999999999975 15830.50044383711
2.6699999999999973 16090.225255506819
2.699999999999997 16188.68873476055
2.729999999999997 16124.780037625398
2.7599999999999967 15913.44480858814
2.7899999999999965 15583.39859156861
2.8199999999999963 15173.589465647683
2.849999999999996 14728.821250373936
2.879999999999996 14295.014657326165
2.9099999999999957 13914.597785008133
2.9399999999999955 13622.479751179793
2.9699999999999953 13442.979906050305
2.999999999999995 13387.96987434733
3.029999999999995 13456.35069579964
3.0599999999999947 13634.846300461379
3.0899999999999945 13899.967226199562
3.1199999999999943 14220.885996800476
3.149999999999994 14562.891402448966
3.179999999999994 14891.047867408432
3.2099999999999937 15173.68470623044
3.2399999999999936 15385.37645862117
3.2699999999999934 15509.1431044014
3.299999999999993 15537.69039579177
3.329999999999993 15473.615720380674
3.3599999999999928 15328.613279937294
3.3899999999999926 15121.809364912706
3.4199999999999924 14877.442396488386
3.449999999999992 14622.155569997902
3.479999999999992 14382.19555372732
3.509999999999992 14180.804621871164
3.5399999999999916 14036.05851786595
3.5699999999999914 13959.343257018852
3.599999999999991 13954.58882951639
3.629999999999991 14018.294858444237
3.659999999999991 14140.301639555397
3.6899999999999906 14305.187275849423
3.7199999999999904 14494.115048931528
3.7499999999999902 14686.91990921283
3.77999999999999 14864.210673898258
3.80999999999999 15009.275132889856
3.8399999999999896 15109.606866335438
3.8699999999999894 15157.921097400262
3.8999999999999893 15152.585840474616
3.929999999999989 15097.457962953613
3.959999999999989 15001.174401507162
3.9899999999999887 14876.001668382252
4.019999999999989 14736.385561010204
4.049999999999989 14597.365514302048
4.079999999999989 14473.021969127289
4.10999999999999 14375.112401588518
4.13999999999999 14312.023214324628
4.16999999999999 14288.125020081688
4.19999999999999 14303.572745767186
4.229999999999991 14354.544301119045
4.259999999999991 14433.867295617529
4.289999999999991 14531.94716024541
4.319999999999991 14637.88423314575
4.349999999999992 14740.655033565448
4.379999999999992 14830.23398151325
4.409999999999992 14898.545458708282
4.439999999999992 14940.159965662773
4.469999999999993 14952.679265601535
4.499999999999993 14936.79047943084
4.529999999999993 14896.00412468318
4.559999999999993 14836.122140609295
4.589999999999994 14764.506927159884
4.619999999999994 14689.237840174279
4.649999999999994 14618.248020032603
4.679999999999994 14558.530635108584
4.709999999999995 14515.49069903505
4.739999999999995 14492.49925783858
4.769999999999995 14490.682362272622
4.799999999999995 14508.951302944517
4.829999999999996 14544.255612458668
4.859999999999996 14592.018799286217
4.889999999999996 14646.700497761414
4.919999999999996 14702.419991916093
4.949999999999997 14753.573528684692
4.979999999999997 14795.383196041837
5.009999999999997 14824.325971642775
5.039999999999997 14838.407405853048
5.069999999999998 14837.26228592571
5.099999999999998 14822.083597100795
5.129999999999998 14795.398035235723
5.159999999999998 14760.721593023993
5.189999999999999 14722.137808601576
5.219999999999999 14683.846743287217
5.249999999999999 14649.732763594795
5.279999999999999 14622.99324192876
5.31 14605.86193447668
5.34 14599.44885773957
5.37 14603.704629633232
5.4 14617.504730279768
5.430000000000001 14638.836706639324
5.460000000000001 14665.064076821505
5.490000000000001 14693.235143668542
5.520000000000001 14720.402507093306
5.550000000000002 14743.919795382531
5.580000000000002 14761.686993852994
5.610000000000002 14772.323646635794
5.640000000000002 14775.257346290766
5.670000000000003 14770.724743086766
5.700000000000003 14759.690899448253
5.730000000000003 14743.701313909072
5.760000000000003 14724.685865993568
5.790000000000004 14704.738367261893
5.820000000000004 14685.89516642241
5.850000000000004 14669.935334615242
5.880000000000004 14658.221113135512
5.910000000000005 14651.591464247922
5.940000000000005 14650.31556695999
5.970000000000005 14654.106951686541
6.000000000000005 14662.191935339191
6.030000000000006 14673.421721065002
6.060000000000006 14686.413577392379
6.090000000000006 14699.70512958302
6.120000000000006 14711.90533657815
6.150000000000007 14721.827384038503
6.180000000000007 14728.591600365646
6.210000000000007 14731.690331893395
6.240000000000007 14731.011282768652
6.270000000000008 14726.820229547717
6.300000000000008 14719.707408819075
6.330000000000008 14710.505979044874
6.360000000000008 14700.19273575998
6.390000000000009 14689.78197159205
6.420000000000009 14680.223471170271
6.450000000000009 14672.314050509987
6.480000000000009 14666.63078720892
6.51000000000001 14663.490420750117
6.54000000000001 14662.93713636592
6.57000000000001 14664.757530231785
6.60000000000001 14668.519588402552
6.6300000000000106 14673.630029634982
6.660000000000011 14679.40300909482
6.690000000000011 14685.133204804612
6.720000000000011 14690.165161821356
6.7500000000000115 14693.953155139934
6.780000000000012 14696.106457214653
6.810000000000012 14696.416474811196
6.840000000000012 14694.864792469458
6.8700000000000125 14691.612410859056
6.900000000000013 14686.97245459913
6.930000000000013 14681.37034099692
6.960000000000013 14675.295754892793
6.9900000000000135 14669.25168558224
7.020000000000014 14663.70624560646
7.050000000000014 14659.050231687468
7.080000000000014 14655.564941887606
7.1100000000000145 14653.402284252636
7.140000000000015 14652.578212604696
7.170000000000015 14652.979774081323
7.200000000000015 14654.384167837427
7.2300000000000155 14656.486598853633
7.260000000000016 14658.934476143688
7.290000000000016 14661.364035372351
7.320000000000016 14663.435806255173
7.3500000000000165 14664.866004939884
7.380000000000017 14665.451029219292
7.410000000000017 14665.082772524987
7.440000000000017 14663.754374522357
7.4700000000000175 14661.55505896909
7.500000000000018 14658.656439981336
7.530000000000018 14655.291805128103
7.560000000000018 14651.729902513534
7.5900000000000185 14648.245742103942
7.620000000000019 14645.092106966033
7.650000000000019 14642.473921578137
7.680000000000019 14640.528632295755
7.7100000000000195 14639.313409572807
7.74000000000002 14638.800159629302
7.77000000000002 14638.879082061512
7.80000000000002 14639.369750761454
7.8300000000000205 14640.038800683384
7.860000000000021 14640.621574633247
7.890000000000021 14640.845825954128
7.920000000000021 14640.455244454668
7.9500000000000215 14639.231409035641
7.980000000000022 14637.010959764853
8.010000000000021 14633.696774949807
8.04000000000002 14629.262921776946
8.07000000000002 14623.752620584677
8.10000000000002 14617.269268524276
8.130000000000019 14609.962729663575
8.160000000000018 14602.012319481686
8.190000000000017 14593.607766259096
8.220000000000017 14584.930348320115
8.250000000000016 14576.13607998161
8.280000000000015 14567.342189801579
8.310000000000015 14558.61917338897
8.340000000000014 14549.988533252423
8.370000000000013 14541.426114590095
8.400000000000013 14532.869967787305
8.430000000000012 14524.232100680205
8.460000000000012 14515.413007474986
8.49000000000001 14506.317048928671
8.52000000000001 14496.86694273721
8.55000000000001 14487.016210528454
8.580000000000009 14476.757850005806
8.610000000000008 14466.12775969714
8.640000000000008 14455.203628272247
8.670000000000007 14444.098945264088
8.700000000000006 14432.953578076378
8.730000000000006 14421.922224749598
8.760000000000005 14411.161299619434
8.790000000000004 14400.815416011808
8.820000000000004 14391.005367922477
8.850000000000003 14381.81897996015
8.880000000000003 14373.305677130138
8.910000000000002 14365.475043521696
8.940000000000001 14358.299693820085
8.97 14351.722012800625
9.0 14345.663874487058
9.03 14340.037915864972
9.059999999999999 14334.758679915698
9.089999999999998 14329.753334105177
9.119999999999997 14324.969587656513
9.149999999999997 14320.381569250407
9.179999999999996 14315.992468114047
9.209999999999996 14311.833852142045
9.239999999999995 14307.96191867455
9.269999999999994 14304.450225370305
9.299999999999994 14301.382950167343
9.329999999999993 14298.84541070713
9.359999999999992 14296.914668719392
9.389999999999992 14295.65153591205
9.419999999999991 14295.094567086348
9.44999999999999 14295.25662158823
9.47999999999999 14296.12451811088
9.50999999999999 14297.660575906388
9.539999999999988 14299.806539191923
9.569999999999988 14302.490845688048
9.599999999999987 14305.638009159737
9.629999999999987 14309.178439054424
9.659999999999986 14313.055819462717
9.689999999999985 14317.23269133462
9.719999999999985 14321.699676334974
9.749999999999984 14326.477531275166
9.779999999999983 14331.61854997181
9.809999999999983 14337.200626162181
9.839999999999982 14343.320511101114
9.869999999999981 14350.087013438628
9.89999999999998 14357.617459393143
9.92999999999998 14366.029090944181
9.95999999999998 14375.421802328605
9.989999999999979 14385.872259969214
10.019999999999978 13233.070075788206
10.049999999999978 10549.989852457878
10.079999999999977 6756.930689149016
10.109999999999976 2379.4467684511774
10.139999999999976 -2018.9062481501733
10.169999999999975 -5906.563346993589
10.199999999999974 -8846.364107195475
10.229999999999974 -10542.722646241655
10.259999999999973 -10868.655037524315
10.289999999999973 -9870.566791577492
10.319999999999972 -7751.561305532873
10.349999999999971 -4836.611670474046
10.37999999999997 -1525.0512554877828
10.40999999999997 1762.855711775903
10.43999999999997 4638.17738360544
10.469999999999969 6788.039548704292
10.499999999999968 8007.8689006423465
10.529999999999967 8218.21368967821
10.559999999999967 7465.273167920627
10.589999999999966 5906.3247761514685
10.619999999999965 3782.9033151693366
10.649999999999965 1385.883629851224
10.679999999999964 -982.7549448120184
10.709999999999964 -3046.6353049490685
10.739999999999963 -4585.863513887891
10.769999999999962 -5458.808650047905
10.799999999999962 -5612.9090020681715
10.829999999999961 -5084.094797370881
10.85999999999996 -3985.829883675645
10.88999999999996 -2489.879496436491
10.919999999999959 -801.7211661760819
10.949999999999958 866.0682904231998
10.979999999999958 2319.297945715409
11.009999999999957 3403.4802647718493
11.039999999999957 4018.8982402936313
11.069999999999956 4128.101087891025
11.099999999999955 3755.53067533508
11.129999999999955 2979.925989841255
11.159999999999954 1920.9322184350858
11.189999999999953 721.8975533889658
11.219999999999953 -468.7423151937816
11.249999999999952 -1515.1542689231924
11.279999999999951 -2308.8768805808368
11.30999999999995 -2779.193872701143
11.33999999999995 -2898.253279996113
11.36999999999995 -2680.788277513363
11.399999999999949 -2178.946183526773
11.429999999999948 -1473.2192806945366
11.459999999999948 -660.8663720605418
11.489999999999947 156.62950488560838
11.519999999999946 885.5165904058175
11.549999999999946 1449.8462804502801
11.579999999999945 1798.664487577957
11.609999999999944 1909.72293533267
11.639999999999944 1789.6011844377483
11.669999999999943 1470.5089115232436
11.699999999999942 1004.4159234729672
11.729999999999942 455.43532838814457
11.759999999999941 -108.49391969797965
11.78999999999994 -623.607648638491
11.81999999999994 -1037.133241701037
11.84999999999994 -1312.2630284646225
11.879999999999939 -1430.9058735543404
11.909999999999938 -1394.1054127100308
11.939999999999937 -1220.25631677753
11.969999999999937 -941.5155238600186
11.999999999999936 -598.9840791580418
12.029999999999935 -237.29325555285757
12.059999999999935 100.71847602250821
12.089999999999934 378.61832065277514
12.119999999999933 569.8405345040192
12.149999999999933 659.7323626063376
12.179999999999932 646.0972060395503
12.209999999999932 538.2805294200728
12.239999999999931 355.0636916390871
12.26999999999993 121.76464994218523
12.29999999999993 -133.1135441915828
12.329999999999929 -381.28465915000646
12.359999999999928 -597.7290285807758
12.389999999999928 -763.0896354275138
12.419999999999927 -865.233876774064
12.449999999999926 -899.8880586536151
12.479999999999926 -870.3613362119222
12.509999999999925 -786.4831956518841
12.539999999999925 -662.9316070779586
12.569999999999924 -517.2096986692712
12.599999999999923 -367.52044154633677
12.629999999999923 -230.77358333242347
12.659999999999922 -120.9203379621582
12.689999999999921 -47.767354442018
12.71999999999992 -16.349335460515807
12.74999999999992 -26.859599348255202
12.77999999999992 -75.10602629476129
12.809999999999919 -153.3659836066134
12.839999999999918 -251.5149067269814
12.869999999999918 -358.2679974839488
12.899999999999917 -462.414088057845
12.929999999999916 -553.9298639695063
12.959999999999916 -624.8703417374337
12.989999999999915 -669.9508708417467
13.019999999999914 -686.82266016615
13.049999999999914 -676.0527494503
13.079999999999913 -640.815464471846
13.109999999999912 -586.3688582946779
13.139999999999912 -519.3600223757422
13.169999999999911 -447.0687468037356
13.19999999999991 -376.6676928880016
13.22999999999991 -314.555261775454
13.25999999999991 -265.8243923065494
13.289999999999909 -233.90523162107888
13.319999999999908 -220.38027352755327
13.349999999999907 -224.98251100525547
13.379999999999907 -245.7568044365043
13.409999999999906 -279.35699894145347
13.439999999999905 -321.4569463557298
13.469999999999905 -367.230412102337
13.499999999999904 -411.8625327887337
13.529999999999903 -451.0141950326758
13.559999999999903 -481.1946245881317
13.589999999999902 -500.04392110602333
13.619999999999902 -506.4966577041866
13.6499999999999 -500.7999555119355
13.6799999999999 -484.423627561046
13.7099999999999 -459.87678995308806
13.739999999999899 -430.4256602633661
13.769999999999898 -399.7472521500197
13.799999999999898 -371.5571530529614
13.829999999999897 -349.2612572043798
13.859999999999896 -335.634612704525
13.889999999999896 -332.5572307687142
13.919999999999895 -340.85217580565944
13.949999999999894 -360.2391225901918
13.979999999999894 -389.39761601596626
14.009999999999893 -426.12379832654887
14.039999999999893 -467.5708091247098
14.069999999999892 -510.5568574429185
14.099999999999891 -551.892258255047
14.12999999999989 -588.7004929909274
14.15999999999989 -618.6965562214066
14.18999999999989 -640.3739095517614
14.219999999999889 -653.1250366313409
14.249999999999888 -657.2783087167985
14.279999999999887 -654.0127853374723
14.309999999999887 -645.1853672632456
14.339999999999886 -633.0945786471932
14.369999999999886 -620.1903877106757
14.399999999999885 -608.7851687974494
14.429999999999884 -600.7835857479024
14.459999999999884 -597.4628644492079
14.489999999999883 -599.3188417781682
14.519999999999882 -606.0069186166334
14.549999999999882 -616.3762467197846
14.579999999999881 -628.5868172597994
14.60999999999988 -640.3148676704075
14.63999999999988 -649.0099608747387
14.66999999999988 -652.1911702609325
14.699999999999878 -647.7304199773799
14.729999999999878 -634.0677338892706
14.759999999999877 -610.3889522656675
14.789999999999877 -576.7135859846313
14.819999999999876 -533.9275491676503
14.849999999999875 -483.70885312515355
14.879999999999875 -428.35060757183277
14.909999999999874 -370.51821901496123
14.939999999999873 -312.9681312327933
14.969999999999873 -258.29509297210114
14.999999999999872 -208.7068697584909
15.029999999999871 -165.82373330686752
15.05999999999987 -130.57751164966342
15.08999999999987 -103.17820991412627
15.11999999999987 -83.18498378467795
15.149999999999869 -69.62924133006422
15.179999999999868 -61.15868022050041
15.209999999999868 -56.23269651779398
15.239999999999867 -53.32396246711817
15.269999999999866 -51.087080973858235
15.299999999999866 -48.509603252890805
15.329999999999865 -45.01386070306426
15.359999999999864 -40.474845645206194
15.389999999999864 -35.21913293427741
15.419999999999863 -29.942314676846948
15.449999999999863 -25.59083893463207
15.479999999999862 -23.218504147029083
15.509999999999861 -23.856522411365187
15.53999999999986 -28.39658226427185
15.56999999999986 -37.48169913337268
15.59999999999986 -51.42553255834677
15.629999999999859 -70.15365516406354
15.659999999999858 -93.20693725785897
15.689999999999857 -119.7998023371873
15.719999999999857 -148.91373267574497
15.749999999999856 -179.4268997604126
15.779999999999855 -210.2631965674076
15.809999999999855 -240.51195053688383
15.839999999999854 -269.50888054355426
15.869999999999854 -296.87988510727246
15.899999999999853 -322.54437964741226
15.929999999999852 -346.72396436658454
15.959999999999852 -369.91891060574227
15.989999999999851 -392.8268706314646
16.01999999999985 -416.2377855750535
16.04999999999985 -440.9427642953967
16.079999999999853 -467.6249411238847
16.109999999999854 -496.78312522912165
16.139999999999855 -528.6757395253574
16.169999999999856 -563.287693735294
