# Results for "element" with Id # 90598 for search config "initial" at position: x0: 31.3; y0: 0; z0: 105.263073684
# time PRESSURE
0.03 1322.736143511163
0.06 3782.6818614381314
0.09 7104.498075808921
0.12 10948.68888830499
0.15 14943.788272140077
0.18 18720.603241737575
0.21 21945.064682731838
0.24 24346.80683070428
0.27 25741.121381401223
0.30000000000000004 26042.54354040239
0.33000000000000007 25269.04792043904
0.3600000000000001 23536.663372755633
0.3900000000000001 21045.1933315465
0.42000000000000015 18056.564195236606
0.4500000000000002 14868.047507014828
0.4800000000000002 11783.085621996745
0.5100000000000002 9082.642378152646
0.5400000000000003 6999.861615043531
0.5700000000000003 5700.364044895044
0.6000000000000003 5269.828758724019
0.6300000000000003 5709.665932904201
0.6600000000000004 6940.741260036699
0.6900000000000004 8814.34377186027
0.7200000000000004 11128.981437186629
0.7500000000000004 13651.171158218905
0.7800000000000005 16138.181445734568
0.8100000000000005 18360.650758477124
0.8400000000000005 20123.120615930613
0.8700000000000006 21280.765167454738
0.9000000000000006 21750.94216208816
0.9300000000000006 21518.647227366873
0.9600000000000006 20635.489376252826
0.9900000000000007 19212.399295829237
1.0200000000000007 17406.895452673776
1.0500000000000007 15406.27591892951
1.0800000000000007 13408.512960998614
1.1100000000000008 11602.832483262426
1.1400000000000008 10151.93482075718
1.1700000000000008 9177.56001837568
1.2000000000000008 8750.672320497193
1.2300000000000009 8886.990530250261
1.260000000000001 9548.01324458429
1.290000000000001 10647.154010576733
1.320000000000001 12060.13398164918
1.350000000000001 13638.44943640419
1.380000000000001 15224.51641256443
1.410000000000001 16667.017058019916
1.440000000000001 17835.01621851554
1.470000000000001 18629.578969679063
1.500000000000001 18991.882677608064
1.5300000000000011 18907.171978583898
1.5600000000000012 18404.314298918493
1.5900000000000012 17551.14544224654
1.6200000000000012 16446.210590053553
1.6500000000000012 15207.848034151879
1.6800000000000013 13961.805419549593
1.7100000000000013 12828.682957469331
1.7400000000000013 11912.459675343574
1.7700000000000014 11291.187999968963
1.8000000000000014 11010.667795578718
1.8300000000000014 11081.565648026603
1.8600000000000014 11480.080626226403
1.8900000000000015 12151.908674986165
1.9200000000000015 13018.953600534307
1.9500000000000015 13988.007736840838
1.9800000000000015 14960.47745633334
2.0100000000000016 15842.176286013511
2.0400000000000014 16552.245234919108
2.070000000000001 17030.380356570906
2.100000000000001 17241.737955752975
2.130000000000001 17179.137113046312
2.1600000000000006 16862.454490049226
2.1900000000000004 16335.390159525738
2.22 15660.038336255358
2.25 14909.900403535346
2.28 14162.110534872238
2.3099999999999996 13489.685309328977
2.3399999999999994 12954.568880290564
2.369999999999999 12602.122257019355
2.399999999999999 12457.527004106953
2.429999999999999 12524.354333217827
2.4599999999999986 12785.324496007976
2.4899999999999984 13205.064405367295
2.5199999999999982 13734.489662568656
2.549999999999998 14316.300984460631
2.579999999999998 14891.003653249396
2.6099999999999977 15402.840955474374
2.6399999999999975 15805.068270577105
2.6699999999999973 16064.086035364753
2.699999999999997 16162.08181010664
2.729999999999997 16097.991075201035
2.7599999999999967 15886.76184006884
2.7899999999999965 15557.073863209891
2.8199999999999963 15147.81148858252
2.849999999999996 14703.699535265856
2.879999999999996 14270.578024682414
2.9099999999999957 13890.80365538936
2.9399999999999955 13599.231343276108
2.9699999999999953 13420.147240641976
2.999999999999995 13365.410497629342
3.029999999999995 13433.927757998952
3.0599999999999947 13612.441773081278
3.0899999999999945 13877.489592491911
3.1199999999999943 14198.273423557348
3.149999999999994 14540.111695558591
3.179999999999994 14868.096048773681
3.2099999999999937 15150.579914931077
3.2399999999999936 15362.15858379159
3.2699999999999934 15485.869308635194
3.299999999999993 15514.431439665143
3.329999999999993 15450.45122970324
3.3599999999999928 15305.626103314575
3.3899999999999926 15099.079014252073
3.4199999999999924 14855.03770833389
3.449999999999992 14600.127361690033
3.479999999999992 14360.570605909066
3.509999999999992 14159.58212399166
3.5399999999999916 14015.209418036722
3.5699999999999914 13938.812983550382
3.599999999999991 13934.303433855579
3.629999999999991 13998.169559471662
3.659999999999991 14120.251067618656
3.6899999999999906 14285.135630001972
3.7199999999999904 14474.005108218133
3.7499999999999902 14666.719876680321
3.77999999999999 14843.917810838928
3.80999999999999 14988.9155028259
3.8399999999999896 15089.23182635028
3.8699999999999894 15137.600905359213
3.8999999999999893 15132.400931514392
3.929999999999989 15077.4892295416
3.959999999999989 14981.49347154056
3.9899999999999887 14856.662904805582
4.019999999999989 14717.42065167376
4.049999999999989 14578.780993818147
4.079999999999989 14454.800132221744
4.10999999999999 14357.21523838623
4.13999999999999 14294.398668072672
4.16999999999999 14270.714758182865
4.19999999999999 14286.320130065546
4.229999999999991 14337.402093368077
4.259999999999991 14416.803522683143
4.289999999999991 14514.949063266682
4.319999999999991 14620.95947673793
4.349999999999992 14723.830542101987
4.379999999999992 14813.552438119095
4.409999999999992 14882.060286032729
4.439999999999992 14923.9294804765
4.469999999999993 14936.760667575454
4.499999999999993 14921.234382199818
4.529999999999993 14880.850169982872
4.559999999999993 14821.396282930631
4.589999999999994 14750.220306467096
4.619999999999994 14675.38721110001
4.649999999999994 14604.817693622334
4.679999999999994 14545.495794634642
4.709999999999995 14502.8216823931
4.739999999999995 14480.166136187196
4.769999999999995 14478.658992776687
4.799999999999995 14497.218775696556
4.829999999999996 14532.804532392738
4.859999999999996 14580.850127613441
4.889999999999996 14635.82554216574
4.919999999999996 14691.859890414096
4.949999999999997 14743.356921186685
4.979999999999997 14785.542312216608
5.009999999999997 14814.892742641327
5.039999999999997 14829.410112545076
5.069999999999998 14828.72288133724
5.099999999999998 14814.015895908926
5.129999999999998 14787.807081280891
5.159999999999998 14753.604560338541
5.189999999999999 14715.485340218467
5.219999999999999 14677.644996023713
5.249999999999999 14643.966343986696
5.279999999999999 14617.64749671532
5.31 14600.924395744723
5.34 14594.910812355658
5.37 14599.56243204236
5.4 14613.76013255673
5.430000000000001 14635.496995683561
5.460000000000001 14662.140593682105
5.490000000000001 14690.741780231501
5.520000000000001 14718.35390372713
5.550000000000002 14742.329253542164
5.580000000000002 14760.563220285496
5.610000000000002 14771.668761111174
5.640000000000002 14775.066155812745
5.670000000000003 14770.98546861352
5.700000000000003 14760.3851586918
5.730000000000003 14744.804903831266
5.760000000000003 14726.170808757568
5.790000000000004 14706.576052303382
5.820000000000004 14688.057969519314
5.850000000000004 14672.398192227714
5.880000000000004 14660.963229741274
5.910000000000005 14654.596809092667
5.940000000000005 14653.572645225833
5.970000000000005 14657.608666064509
6.000000000000005 14665.934304912744
6.030000000000006 14677.401212323373
6.060000000000006 14690.624128903612
6.090000000000006 14704.135707108997
6.120000000000006 14716.538398472092
6.150000000000007 14726.638335034142
6.180000000000007 14733.54847118246
6.210000000000007 14736.753032450692
6.240000000000007 14736.131315492028
6.270000000000008 14731.94232656482
6.300000000000008 14724.771711942241
6.330000000000008 14715.449413255805
6.360000000000008 14704.949298362515
6.390000000000009 14694.283171763886
6.420000000000009 14684.39825834008
6.450000000000009 14676.088484242151
6.480000000000009 14669.928090672194
6.51000000000001 14666.230341468872
6.54000000000001 14665.034449227915
6.57000000000001 14666.120903692645
6.60000000000001 14669.05215630755
6.6300000000000106 14673.230183506843
6.660000000000011 14677.963750980054
6.690000000000011 14682.542384131539
6.720000000000011 14686.307256790984
6.7500000000000115 14688.709478390918
6.780000000000012 14689.356021016178
6.810000000000012 14688.035557950318
6.840000000000012 14684.727014297187
6.8700000000000125 14679.5902770356
6.900000000000013 14672.936617219264
6.930000000000013 14665.19043655829
6.960000000000013 14656.840503119487
6.9900000000000135 14648.387180962272
7.020000000000014 14640.293993099047
7.050000000000014 14632.944571176904
7.080000000000014 14626.611737385516
7.1100000000000145 14621.438506965906
7.140000000000015 14617.431699664297
7.170000000000015 14614.470839138388
7.200000000000015 14612.327225331235
7.2300000000000155 14610.689669379506
7.260000000000016 14609.200182954613
7.290000000000016 14607.491658653478
7.320000000000016 14605.222760576553
7.3500000000000165 14602.10762286649
7.380000000000017 14597.93966683026
7.410000000000017 14592.608012124396
7.440000000000017 14586.104162691252
7.4700000000000175 14578.517839191236
7.500000000000018 14570.024444005832
7.530000000000018 14560.863983319177
7.560000000000018 14551.316101251494
7.5900000000000185 14541.671931404078
7.620000000000019 14532.205269899652
7.650000000000019 14523.14597624109
7.680000000000019 14514.659319113502
7.7100000000000195 14506.834670753511
7.74000000000002 14499.680091779464
7.77000000000002 14493.125862980381
7.80000000000002 14487.035265999677
7.8300000000000205 14481.221233762695
7.860000000000021 14475.467579773527
7.890000000000021 14469.55180568303
7.920000000000021 14463.267077532326
7.9500000000000215 14456.442165770155
7.980000000000022 14448.956664639882
8.010000000000021 14440.751435758353
8.04000000000002 14431.832595163314
8.07000000000002 14422.269924760225
8.10000000000002 14412.187810089095
8.130000000000019 14401.751231408103
8.160000000000018 14391.148534726992
8.190000000000017 14380.569843920453
8.220000000000017 14370.18924748545
8.250000000000016 14360.149733159573
8.280000000000015 14350.551624484078
8.310000000000015 14341.445801360747
8.340000000000014 14332.832275276098
8.370000000000013 14324.663435901011
8.400000000000013 14316.852398466688
8.430000000000012 14309.284501619908
8.460000000000012 14301.831835214056
8.49000000000001 14294.370149186527
8.52000000000001 14286.794719086964
8.55000000000001 14279.031810377071
8.580000000000009 14271.047320947899
8.610000000000008 14262.849940933109
8.640000000000008 14254.489454887746
8.670000000000007 14246.051507095286
8.700000000000006 14237.648477871684
8.730000000000006 14229.406856931722
8.760000000000005 14221.45349177231
8.790000000000004 14213.902510968748
8.820000000000004 14206.843624093071
8.850000000000003 14200.333672350194
8.880000000000003 14194.391262566849
8.910000000000002 14188.995647931339
8.940000000000001 14184.089781433031
8.97 14179.5875050023
9.0 14175.384000056256
9.03 14171.367218658124
9.059999999999999 14167.429470618965
9.089999999999998 14163.478846528069
9.119999999999997 14159.448849899512
9.149999999999997 14155.303822899317
9.179999999999996 14151.040474107498
9.209999999999996 14146.686306149159
9.239999999999995 14142.294512328075
9.269999999999994 14137.937116892497
9.299999999999994 14133.697308263456
9.329999999999993 14129.658896546565
9.359999999999992 14125.89735539168
9.389999999999992 14122.472257692376
9.419999999999991 14119.42078172019
9.44999999999999 14116.75298396174
9.47999999999999 14114.450659467382
9.50999999999999 14112.469145170797
9.539999999999988 14110.74230009929
9.569999999999988 14109.192132995197
9.599999999999987 14107.742763507953
9.629999999999987 14106.32779465202
9.659999999999986 14104.891810175044
9.689999999999985 14103.393112269758
9.719999999999985 14101.80643516049
9.749999999999984 14100.12670296354
9.779999999999983 14098.3719771667
9.809999999999983 14096.578435423102
9.839999999999982 14094.792637834156
9.869999999999981 14093.064443558711
9.89999999999998 14091.44072308724
9.92999999999998 14089.962009773804
9.95999999999998 14088.660296232081
9.989999999999979 14087.556256774064
10.019999999999978 12926.413204126256
10.049999999999978 10237.536470303587
10.079999999999977 6437.785163785444
10.109999999999976 2050.98141826101
10.139999999999976 -2359.290701844771
10.169999999999975 -6260.732374865891
10.199999999999974 -9215.846087499456
10.229999999999974 -10929.46440661864
10.259999999999973 -11275.296070947246
10.289999999999973 -10299.891131244452
10.319999999999972 -8205.460302148114
10.349999999999971 -5315.188508841506
10.37999999999997 -2026.4117537954073
10.40999999999997 1242.0322909328029
10.43999999999997 4101.65061856395
10.469999999999969 6239.130627600769
10.499999999999968 7449.116862930857
10.529999999999967 7651.63772984326
10.559999999999967 6892.996232682013
10.589999999999966 5331.1856623924505
10.619999999999965 3208.7177391313
10.649999999999965 817.2223421945596
10.679999999999964 -1541.1658187950775
10.709999999999964 -3590.6380930943924
10.739999999999963 -5112.432540886281
10.769999999999962 -5966.284798877059
10.799999999999962 -6100.865766834907
10.829999999999961 -5552.925730870397
10.85999999999996 -4436.231636560913
10.88999999999996 -2922.3982635134525
10.919999999999959 -1216.4951072350846
10.949999999999958 469.3738240573691
10.979999999999958 1941.3228748851363
11.009999999999957 3044.941062229843
11.039999999999957 3680.3663728125935
11.069999999999956 3809.8588161699495
11.099999999999955 3457.513743208569
11.129999999999955 2701.728559484887
11.159999999999954 1661.8396894012387
11.189999999999953 480.9759568356432
11.219999999999953 -692.5366376806882
11.249999999999952 -1722.8895090357269
11.279999999999951 -2501.6006263112054
11.30999999999995 -2957.9050304431303
11.33999999999995 -3063.8839657970625
11.36999999999995 -2834.185771144078
11.399999999999949 -2320.83364126274
11.429999999999948 -1604.1449201452945
11.459999999999948 -781.1522243556069
11.489999999999947 46.92161687209577
11.519999999999946 786.6112156011194
11.549999999999946 1362.2540182751923
11.579999999999945 1723.14169496299
11.609999999999944 1847.2040411129776
11.639999999999944 1741.1095033180252
11.669999999999943 1437.0686659107298
11.699999999999942 987.0041464651563
11.729999999999942 454.9759339916711
11.759999999999941 -91.11415949925589
11.78999999999994 -587.5348839796567
11.81999999999994 -981.5655467192655
11.84999999999994 -1236.4899207446324
11.879999999999939 -1334.340934976223
11.909999999999938 -1276.2890058903154
11.939999999999937 -1080.8332438346988
11.969999999999937 -780.2071424879261
11.999999999999936 -415.55932704431524
12.029999999999935 -31.569562445112055
12.059999999999935 328.8431447123244
12.089999999999934 629.133884248679
12.119999999999933 842.6102969613784
12.149999999999933 954.4856476686465
12.179999999999932 962.4239854068513
12.209999999999932 875.6567155611981
12.239999999999931 712.916092638278
12.26999999999993 499.5083148963022
12.29999999999993 263.94907163830686
12.329999999999929 34.55545199530728
12.359999999999928 -163.62088738789512
12.389999999999928 -311.2159368179685
12.419999999999927 -396.11790742331516
12.449999999999926 -414.096978679032
12.479999999999926 -368.5170249563405
12.509999999999925 -269.2613509650429
12.539999999999925 -131.06083136369537
12.569999999999924 28.540221144926843
12.599999999999923 191.31492714920984
12.629999999999923 340.3443246426667
12.659999999999922 461.66810416952524
12.689999999999921 545.4626524470274
12.71999999999992 586.6695251009677
12.74999999999992 585.0642068465188
12.77999999999992 544.8258888114518
12.809999999999919 473.70626267795046
12.839999999999918 381.8935573614292
12.869999999999918 280.75410325996313
12.899999999999917 181.57748183615678
12.929999999999916 94.44977843005405
12.959999999999916 27.358159090060543
12.989999999999915 -14.410747070604184
13.019999999999914 -28.5460305634454
13.049999999999914 -15.664319987300383
13.079999999999913 21.017689171111144
13.109999999999912 76.23044917051533
13.139999999999912 143.34198662958894
13.169999999999911 215.11445532351655
13.19999999999991 284.4491471081173
13.22999999999991 345.0487904353853
13.25999999999991 391.94828364369096
13.289999999999909 421.8739402204112
13.319999999999908 433.4158394459177
13.349999999999907 427.01565114275115
13.379999999999907 404.7805250113307
13.409999999999906 370.16186007135957
13.439999999999905 327.53811586621583
13.469999999999905 281.73663536495627
13.499999999999904 237.5431964453932
13.529999999999903 199.24796780830772
13.559999999999903 170.26230936201563
13.589999999999902 152.83800856443685
13.619999999999902 147.91309555393445
13.6499999999999 155.08520844216628
13.6799999999999 172.7166866912342
13.7099999999999 198.15339584789908
13.739999999999899 228.02978948508803
13.769999999999898 258.63217775923937
13.799999999999898 286.2835549544456
13.829999999999897 307.7144489727561
13.859999999999896 320.3838737757311
13.889999999999896 322.7108870968758
13.919999999999895 314.2107936536099
13.949999999999894 295.51854501824135
13.979999999999894 268.2995606467409
14.009999999999893 235.06019737831912
14.039999999999893 198.8846022636907
14.069999999999892 163.11463570087264
14.099999999999891 131.00688694983964
14.12999999999989 105.40206221703373
14.15999999999989 88.4394892386062
14.18999999999989 81.34575395714377
14.219999999999889 84.32397601911049
14.249999999999888 96.56230713475414
14.279999999999887 116.33419867154797
14.309999999999887 141.19532372058958
14.339999999999886 168.25316420125375
14.369999999999886 194.46671685433364
14.399999999999885 216.9535095621581
14.429999999999884 233.27714398243378
14.459999999999884 241.68274976751823
14.489999999999883 241.2506496375985
14.519999999999882 231.95939937010405
14.549999999999882 214.6504189894271
14.579999999999881 190.89848381209256
14.60999999999988 162.8114461278401
14.63999999999988 132.78371813802062
14.66999999999988 103.22625364996415
14.699999999999878 76.30228690183712
14.729999999999878 53.70536771741085
14.759999999999877 36.50591212077916
14.789999999999877 25.069802826345693
14.819999999999876 19.056062386881752
14.849999999999875 17.483116030598087
14.879999999999875 18.862608866401583
14.909999999999874 21.38795647729184
14.939999999999873 23.15557384733537
14.969999999999873 22.38371587284037
14.999999999999872 17.597970795937655
15.029999999999871 7.786679570693527
15.05999999999987 -7.482507492182895
15.08999999999987 -28.037122730442604
15.11999999999987 -53.120493390595975
15.149999999999869 -81.4840643016524
15.179999999999868 -111.5506461032163
15.209999999999868 -141.61950547786054
15.239999999999867 -170.07229212107387
15.269999999999866 -195.5525964305775
15.299999999999866 -217.0886026352413
15.329999999999865 -234.13690043303652
15.359999999999864 -246.56701989931466
15.389999999999864 -254.61013199442786
15.419999999999863 -258.82963835665095
15.449999999999863 -260.08018007466217
15.479999999999862 -259.4231827786866
15.509999999999861 -258.01184378045537
15.53999999999986 -256.8977081753356
15.56999999999986 -256.90721443733673
15.59999999999986 -258.5240833225586
15.629999999999859 -261.82327832604904
15.659999999999858 -266.52304887326864
15.689999999999857 -272.16191598394585
15.719999999999857 -278.3535912964453
15.749999999999856 -285.0574032632208
15.779999999999855 -292.74070608832466
15.809999999999855 -302.3165531588177
15.839999999999854 -314.89690380272987
15.869999999999854 -331.5047575372371
15.899999999999853 -352.7938604948181
15.929999999999852 -378.83074332461024
15.959999999999852 -409.0310768532938
15.989999999999851 -442.25951057980586
16.01999999999985 -476.98108419300866
16.04999999999985 -511.5896785054699
16.079999999999853 -544.7328912284651
16.109999999999854 -575.5026055918371
16.139999999999855 -603.4846855264607
16.169999999999856 -628.7089938886043
16.199999999999857 -651.5550846480393
