# Results for "element" with Id # 33543 for search config "initial" at position: x0: 31.3; y0: 0; z0: 39.4736526316
# time PRESSURE
0.03 1322.5427833842496
0.06 3782.149601685751
0.09 7103.539364492068
0.12 10947.281187279646
0.15 14941.978644379711
0.18 18718.509589694553
0.21 21942.870319585145
0.24 24344.74419445793
0.27 25739.44241436904
0.30000000000000004 26041.47880057859
0.33000000000000007 25268.76057333216
0.3600000000000001 23537.20809774604
0.3900000000000001 21046.49154962548
0.42000000000000015 18058.402531350635
0.4500000000000002 14870.101835436173
0.4800000000000002 11784.966488285128
0.5100000000000002 9083.952844314728
0.5400000000000003 7000.256749898211
0.5700000000000003 5699.601614811141
0.6000000000000003 5267.805378304744
0.6300000000000003 5706.434365889706
0.6600000000000004 6936.509986645835
0.6900000000000004 8809.458026537231
0.7200000000000004 11123.888567562679
0.7500000000000004 13646.371747834692
0.7800000000000005 16134.1693913045
0.8100000000000005 18357.847868832683
0.8400000000000005 20121.81404182759
0.8700000000000006 21281.058583322498
0.9000000000000006 21752.729693395744
0.9300000000000006 21521.618268929793
0.9600000000000006 20639.163966418113
0.9900000000000007 19216.191884813117
1.0200000000000007 17410.19527710647
1.0500000000000007 15408.53139592793
1.0800000000000007 13409.30714829727
1.1100000000000008 11601.938759088673
1.1400000000000008 10149.345755555529
1.1700000000000008 9173.486036812721
1.2000000000000008 8745.512216260047
1.2300000000000009 8881.277223133262
1.260000000000001 9542.343447131605
1.290000000000001 10642.109293413245
1.320000000000001 12056.204489452697
1.350000000000001 13635.970669789984
1.380000000000001 15223.627840003219
1.410000000000001 16667.648445631294
1.440000000000001 17836.90319753684
1.470000000000001 18632.30533496064
1.500000000000001 18994.94156420671
1.5300000000000011 18910.03710652164
1.5600000000000012 18406.509771995425
1.5900000000000012 17552.304846633935
1.6200000000000012 16446.11802974257
1.6500000000000012 15206.45650045995
1.6800000000000013 13959.231560076843
1.7100000000000013 12825.181022296345
1.7400000000000013 11908.379977956205
1.7700000000000014 11286.9265493919
1.8000000000000014 11006.61521193629
1.8300000000000014 11078.061307122496
1.8600000000000014 11477.377811087003
1.8900000000000015 12150.152821814085
1.9200000000000015 13018.174364127832
1.9500000000000015 13988.123964310453
1.9800000000000015 14961.313145987106
2.0100000000000016 15843.484789646425
2.0400000000000014 16553.738914702968
2.070000000000001 17031.76314009013
2.100000000000001 17242.737428798864
2.130000000000001 17179.53383512068
2.1600000000000006 16862.105182416904
2.1900000000000004 16334.242735383452
2.22 15658.136980473824
2.25 14907.37930806469
2.28 14159.176922651584
2.3099999999999996 13486.592958765346
2.3399999999999994 12951.585415752083
2.369999999999999 12599.494088361394
2.399999999999999 12455.44710120428
2.429999999999999 12522.937144774014
2.4599999999999986 12784.592215169137
2.4899999999999984 13204.946466107884
2.5199999999999982 13734.835437816897
2.549999999999998 14316.903986112618
2.579999999999998 14891.633015491949
2.6099999999999977 15403.27541866225
2.6399999999999975 15805.127129527686
2.6699999999999973 16063.652316095915
2.699999999999997 16161.114465840647
2.729999999999997 16096.524840262235
2.7599999999999967 15884.89547221732
2.7899999999999965 15554.949752906936
2.8199999999999963 15145.59077708872
2.849999999999996 14701.53699377946
2.879999999999996 14268.601010349463
2.9099999999999957 13889.097829741044
2.9399999999999955 13597.83461970934
2.9699999999999953 13419.051670410792
2.999999999999995 13364.570435368412
3.029999999999995 13433.271935420049
3.0599999999999947 13611.88673335189
3.0899999999999945 13876.951990186633
3.1199999999999943 14197.679507320148
3.149999999999994 14539.403451609805
3.179999999999994 14867.233828555847
3.2099999999999937 15149.542364520363
3.2399999999999936 15360.940742056622
3.2699999999999934 15484.479855867698
3.299999999999993 15512.8898721231
3.329999999999993 15448.785262009513
3.3599999999999928 15303.869261677442
3.3899999999999926 15097.26830466201
3.4199999999999924 14853.211255668444
3.449999999999992 14598.321608224247
3.479999999999992 14358.817112882067
3.509999999999992 14157.904365116341
3.5399999999999916 14013.61996362519
3.5699999999999914 13937.31160664443
3.599999999999991 13932.876604299203
3.629999999999991 13996.791625884995
3.659999999999991 14118.8870772903
3.6899999999999906 14283.745368006816
3.7199999999999904 14472.547845070869
3.7499999999999902 14665.159266582481
3.77999999999999 14842.226182370097
3.80999999999999 14987.07676061702
3.8399999999999896 15087.242755832562
3.8699999999999894 15135.470865482668
3.8999999999999893 15130.14986476176
3.929999999999989 15075.144393857328
3.959999999999989 14979.085613779389
3.9899999999999887 14854.222287319926
4.019999999999989 14714.973069385785
4.049999999999989 14576.344613418387
4.079999999999989 14452.383557739046
4.10999999999999 14354.816860486233
4.13999999999999 14292.007221075824
4.16999999999999 14268.310906255643
4.19999999999999 14283.878996883805
4.229999999999991 14334.896045525635
4.259999999999991 14414.205424115065
4.289999999999991 14512.23527945175
4.319999999999991 14618.111831831295
4.349999999999992 14720.83768498593
4.379999999999992 14810.410533211065
4.409999999999992 14878.772826970519
4.439999999999992 14920.506082465761
4.469999999999993 14933.215098733688
4.499999999999993 14917.582237534258
4.529999999999993 14877.106408318105
4.559999999999993 14817.573030722951
4.589999999999994 14746.325079090539
4.619999999999994 14671.422033002475
4.649999999999994 14600.779287087906
4.679999999999994 14541.37620391819
4.709999999999995 14498.609370622846
4.739999999999995 14475.847492285757
4.769999999999995 14474.219897128023
4.799999999999995 14492.645778372755
4.829999999999996 14528.085870094685
4.859999999999996 14575.976600775206
4.889999999999996 14630.790969988788
4.919999999999996 14686.660624654904
4.949999999999997 14737.990874316583
4.979999999999997 14780.008903425709
5.009999999999997 14809.193073254486
5.039999999999997 14823.546488254937
5.069999999999998 14822.697962096634
5.099999999999998 14807.831776417312
5.129999999999998 14781.464528788425
5.159999999999998 14747.101694694518
5.189999999999999 14708.816922895885
5.219999999999999 14670.802552225543
5.249999999999999 14636.9383025964
5.279999999999999 14610.420463936967
5.31 14593.484909149698
5.34 14587.246009700744
5.37 14591.660228654959
5.4 14605.610208319655
5.430000000000001 14627.090459695171
5.460000000000001 14653.4694521145
5.490000000000001 14681.798404272718
5.520000000000001 14709.130554873209
5.550000000000002 14732.817195887834
5.580000000000002 14750.753706718373
5.610000000000002 14761.553599664448
5.640000000000002 14764.637313186175
5.670000000000003 14760.234300706677
5.700000000000003 14749.302424202824
5.730000000000003 14733.37979908641
5.760000000000003 14714.39127359485
5.790000000000004 14694.428039155197
5.820000000000004 14675.525894471664
5.850000000000004 14659.465931808461
5.880000000000004 14647.613973048616
5.910000000000005 14640.812820579256
5.940000000000005 14639.335562861597
5.970000000000005 14642.899928769051
6.000000000000005 14650.736674481244
6.030000000000006 14661.69985648012
6.060000000000006 14674.406878616768
6.090000000000006 14687.392698663656
6.120000000000006 14699.261453634617
6.150000000000007 14708.819696428513
6.180000000000007 14715.180513605937
6.210000000000007 14717.829054005242
6.240000000000007 14716.646379395255
6.270000000000008 14711.892823645854
6.300000000000008 14704.15502822325
6.330000000000008 14694.264135430547
6.360000000000008 14683.196136592142
6.390000000000009 14671.965273127722
6.420000000000009 14661.520946937795
6.450000000000009 14652.65861547644
6.480000000000009 14645.953099868731
6.51000000000001 14641.7166999071
6.54000000000001 14639.985333111004
6.57000000000001 14640.535282086881
6.60000000000001 14642.924423393355
6.6300000000000106 14646.549061712645
6.660000000000011 14650.712532921514
6.690000000000011 14654.698697877433
6.720000000000011 14657.841848845943
6.7500000000000115 14659.58604065554
6.780000000000012 14659.531811431314
6.810000000000012 14657.463455728537
6.840000000000012 14653.357292682545
6.8700000000000125 14647.369499804048
6.900000000000013 14639.809730570072
6.930000000000013 14631.102075808381
6.960000000000013 14621.737018533684
6.9900000000000135 14612.219998655471
7.020000000000014 14603.021558738514
7.050000000000014 14594.535489799193
7.080000000000014 14587.047551821144
7.1100000000000145 14580.71573588992
7.140000000000015 14575.563673694116
7.170000000000015 14571.486906982153
7.200000000000015 14568.270978011056
7.2300000000000155 14565.618290522949
7.260000000000016 14563.182284825107
7.290000000000016 14560.604195893045
7.320000000000016 14557.548189081166
7.3500000000000165 14553.732577756073
7.380000000000017 14548.954864329273
7.410000000000017 14543.106783509347
7.440000000000017 14536.180704135022
7.4700000000000175 14528.265555213377
7.500000000000018 14519.533601732039
7.530000000000018 14510.219518601578
7.560000000000018 14500.594915615167
7.5900000000000185 14490.939790284987
7.620000000000019 14481.514824046875
7.650000000000019 14472.5373630593
7.680000000000019 14464.161949270128
7.7100000000000195 14456.467622715327
7.74000000000002 14449.452931558122
7.77000000000002 14443.041598075974
7.80000000000002 14437.093077702815
7.8300000000000205 14431.418732235363
7.860000000000021 14425.802656648531
7.890000000000021 14420.02479789357
7.920000000000021 14413.883172857886
7.9500000000000215 14407.212657971655
7.980000000000022 14399.899853295305
8.010000000000021 14391.892981024886
8.04000000000002 14383.205458613715
8.07000000000002 14373.913930481667
8.10000000000002 14364.149787937018
8.130000000000019 14354.085350559055
8.160000000000018 14343.915048218227
8.190000000000017 14333.835098508906
8.220000000000017 14324.024420700878
8.250000000000016 14314.628742403705
8.280000000000015 14305.748145288308
8.310000000000015 14297.430439509453
8.340000000000014 14289.669904417698
8.370000000000013 14282.411077555274
8.400000000000013 14275.55737760314
8.430000000000012 14268.983379877558
8.460000000000012 14262.550333082081
8.49000000000001 14256.12294985038
8.52000000000001 14249.585024329333
8.55000000000001 14242.852199640498
8.580000000000009 14235.880031899747
8.610000000000008 14228.667837931524
8.640000000000008 14221.258443747354
8.670000000000007 14213.732195377454
8.700000000000006 14206.198483532848
8.730000000000006 14198.784204496767
8.760000000000005 14191.619972010383
8.790000000000004 14184.826838052371
8.820000000000004 14178.50464802362
8.850000000000003 14172.721048867108
8.880000000000003 14167.505021489023
8.910000000000002 14162.84381357456
8.940000000000001 14158.684641557258
8.97 14154.941823100093
9.0 14151.507103620324
9.03 14148.262204703955
9.059999999999999 14145.090978570734
9.089999999999998 14141.891683126412
9.119999999999997 14138.586944027766
9.149999999999997 14135.129727258909
9.179999999999996 14131.505964322316
9.209999999999996 14127.733193789543
9.239999999999995 14123.855916997394
9.269999999999994 14119.939533620469
9.299999999999994 14116.062771338382
9.329999999999993 14112.308221060954
9.359999999999992 14108.752928446367
9.389999999999992 14105.460552121542
9.419999999999991 14102.474639305934
9.44999999999999 14099.81435081168
9.47999999999999 14097.472798879733
9.50999999999999 14095.41643692312
9.539999999999988 14093.589465423773
9.569999999999988 14091.921798304858
9.599999999999987 14090.342000332379
9.629999999999987 14088.784102069762
9.659999999999986 14087.191310081933
9.689999999999985 14085.519741806102
9.719999999999985 14083.741978089429
9.749999999999984 14081.851724946284
9.779999999999983 14079.86841547404
9.809999999999983 14077.83143537755
9.839999999999982 14075.792703863737
9.869999999999981 14073.80883130489
9.89999999999998 14071.932845314986
9.92999999999998 14070.210926731665
9.95999999999998 14068.679662313953
9.989999999999979 14067.364760945524
10.019999999999978 12906.20807251458
10.049999999999978 10217.732959516232
10.079999999999977 6418.875428227138
10.109999999999976 2033.290142723151
10.139999999999976 -2375.8093679942936
10.169999999999975 -6276.51283297289
10.199999999999974 -9231.51855377975
10.229999999999974 -10945.543617090658
10.259999999999973 -11291.902395038713
10.289999999999973 -10316.633737844733
10.319999999999972 -8221.52871061474
10.349999999999971 -5329.610524236068
10.37999999999997 -2038.3647163760143
10.40999999999997 1232.9732218529052
10.43999999999997 4095.409057856436
10.469999999999969 6235.187175985643
10.499999999999968 7446.690509209859
10.529999999999967 7649.922462328242
10.559999999999967 6891.378270611044
10.589999999999966 5329.385700840142
10.619999999999965 3206.8360108382794
10.649999999999965 815.6872660061415
10.679999999999964 -1541.7207331061852
10.709999999999964 -3589.5380442876985
10.739999999999963 -5109.128751522803
10.769999999999962 -5960.491272321462
10.799999999999962 -6092.638414074344
10.829999999999961 -5542.6636972410415
10.85999999999996 -4424.598622299546
10.88999999999996 -2910.1848725681607
10.919999999999959 -1204.4541685320119
10.949999999999958 480.676136340622
10.979999999999958 1951.6028080078431
11.009999999999957 3054.2190627378936
11.039999999999957 3688.915453866734
11.069999999999956 3818.0991848517624
11.099999999999955 3465.885919902499
11.129999999999955 2710.5810605066235
11.159999999999954 1671.3569557653782
11.189999999999953 491.15719379663
11.219999999999953 -681.8545895877112
11.249999999999952 -1711.9803786804343
11.279999999999951 -2490.790955120637
11.30999999999995 -2947.5268987123163
11.33999999999995 -3054.248189130233
11.36999999999995 -2825.5733602746977
11.399999999999949 -2313.5014153778907
11.429999999999948 -1598.3357221090982
11.459999999999948 -777.1019028208734
11.489999999999947 48.984278385195324
11.519999999999946 786.4691721441958
11.549999999999946 1359.7079796245023
11.579999999999945 1718.0135130099975
11.609999999999944 1839.3328638520704
11.639999999999944 1730.3389782339896
11.669999999999943 1423.2277847104863
11.699999999999942 969.8855566150286
11.729999999999942 434.31604349906905
11.759999999999941 -115.64658443657095
11.78999999999994 -616.3381197620176
11.81999999999994 -1015.0916910476825
11.84999999999994 -1275.222956526597
11.879999999999939 -1378.7694260601452
11.909999999999938 -1326.8782192985004
11.939999999999937 -1138.002201685989
11.969999999999937 -844.3131806347135
11.999999999999936 -486.8907471413954
12.029999999999935 -110.34722292950113
12.059999999999935 242.45650229913352
12.089999999999934 535.0171467219083
12.119999999999933 740.6641569116165
12.149999999999933 844.6198600384815
12.179999999999932 844.5533187345526
12.209999999999932 749.7034549621494
12.239999999999931 578.8121594163757
12.26999999999993 357.20143116449833
12.29999999999993 113.40909436581629
12.329999999999929 -124.21685115170762
12.359999999999928 -330.57964770308087
12.389999999999928 -486.2501639882931
12.419999999999927 -579.0341604272606
12.449999999999926 -604.6055124542073
12.479999999999926 -566.2286677228032
12.509999999999925 -473.6912700930643
12.539999999999925 -341.63787109652463
12.569999999999924 -187.54674377137167
12.599999999999923 -29.60598106330473
12.629999999999923 115.27432377208169
12.659999999999922 233.1175733885873
12.689999999999921 314.0610500340154
12.71999999999992 352.9905983756278
12.74999999999992 349.6171535243049
12.77999999999992 308.04885550475865
12.809999999999919 235.955784947864
12.839999999999918 143.44660420913766
12.869999999999918 41.81420148487055
12.899999999999917 -57.7160932881837
12.929999999999916 -145.11056084104794
12.959999999999916 -212.42121716059376
12.989999999999915 -254.3866773138701
13.019999999999914 -268.7088526805755
13.049999999999914 -256.0104555939649
13.079999999999913 -219.51294268312174
13.109999999999912 -164.49398134619028
13.139999999999912 -97.59951506375732
13.169999999999911 -26.089135036115326
13.19999999999991 42.90807911559488
13.22999999999991 103.05827699457156
13.25999999999991 149.35846346440422
13.289999999999909 178.50175008848097
13.319999999999908 189.05544646511686
13.349999999999907 181.4543202918395
13.379999999999907 157.82183413052365
13.409999999999906 121.65099572779701
13.439999999999905 77.3835093260487
13.469999999999905 29.933198509910707
13.499999999999904 -15.80175673003135
13.529999999999903 -55.397342518271884
13.559999999999903 -85.29438636106701
13.589999999999902 -103.08733512769535
13.619999999999902 -107.69137123369191
13.6499999999999 -99.37910162035404
13.6799999999999 -79.68919735816228
13.7099999999999 -51.22302009083817
13.739999999999899 -17.350246193510646
13.769999999999898 18.146395453144695
13.799999999999898 51.45278028261189
13.829999999999897 79.09418552256223
13.859999999999896 98.26494230831143
13.889999999999896 107.0825092332148
13.919999999999895 104.74443149780923
13.949999999999894 91.57283213001027
13.979999999999894 68.94498837814135
14.009999999999893 39.120791412878525
14.039999999999893 4.989419906424487
14.069999999999892 -30.24040681047527
14.099999999999891 -63.37513289739359
14.12999999999989 -91.55853195548409
14.15999999999989 -112.55378437893727
14.18999999999989 -124.95568244519895
14.219999999999889 -128.31062199113586
14.249999999999888 -123.12983390585207
14.279999999999887 -110.80330712376967
14.309999999999887 -93.424329373654
14.339999999999886 -73.54341091465903
14.369999999999886 -53.88198452436275
14.399999999999885 -37.035347847040846
14.429999999999884 -25.19675244461733
14.459999999999884 -19.932018299118987
14.489999999999883 -22.028220141518865
14.519999999999882 -31.429938987208494
14.549999999999882 -47.26925795876069
14.579999999999881 -67.98442725387704
14.60999999999988 -91.50921857123137
14.63999999999988 -115.51103697385777
14.66999999999988 -137.6522125506951
14.699999999999878 -155.84483757695438
14.729999999999878 -168.47023961446538
14.759999999999877 -174.53915508429455
14.789999999999877 -173.77789735663472
14.819999999999876 -166.63298506737456
14.849999999999875 -154.19686157325106
14.879999999999875 -138.06537164479298
14.909999999999874 -120.14438755921717
14.939999999999873 -102.42788608101377
14.969999999999873 -86.77527102168432
14.999999999999872 -74.71558973819604
15.029999999999871 -67.29515871465229
15.05999999999987 -64.98232743328923
15.08999999999987 -67.64088231862225
15.11999999999987 -74.56991675726049
15.149999999999869 -84.60605536316578
15.179999999999868 -96.2747233710621
15.209999999999868 -107.97118473948429
15.239999999999867 -118.14620024320006
15.269999999999866 -125.47947722593982
15.299999999999866 -129.019360404529
15.329999999999865 -128.2729290398889
15.359999999999864 -123.23974574414362
15.389999999999864 -114.38866994970154
15.419999999999863 -102.58581865299779
15.449999999999863 -88.9808134254289
15.479999999999862 -74.86525394044882
15.509999999999861 -61.52220435231864
15.53999999999986 -50.081090084256815
15.56999999999986 -41.39610685527947
15.59999999999986 -35.96155202118115
15.629999999999859 -33.8713668338079
15.659999999999858 -34.82599643955205
15.689999999999857 -38.18659263783426
15.719999999999857 -43.06592981585711
15.749999999999856 -48.44359547321229
15.779999999999855 -53.28737509310446
15.809999999999855 -56.668483444438884
15.839999999999854 -57.85978073160695
15.869999999999854 -56.411051030213194
15.899999999999853 -52.19084412610181
15.929999999999852 -45.390671599147055
15.959999999999852 -36.48818601898006
15.989999999999851 -26.179936153796998
16.01999999999985 -15.291613774120432
16.04999999999985 -4.681616176568882
16.079999999999853 4.851904683130198
16.109999999999854 12.66054602098149
16.139999999999855 18.31312548447306
16.169999999999856 21.63440727152407
