# Results for "element" with Id # 47170 for search config "initial" at position: x0: 31.3; y0: 0; z0: 171.052494737
# time PRESSURE
0.03 1323.4736521764762
0.06 3784.7912477182576
0.09 7108.472787118096
0.12 10954.851449612639
0.15 14952.26112189494
0.18 18731.280380095315
0.21 21957.593826648535
0.24 24360.59780109669
0.27 25755.395132219233
0.30000000000000004 26056.42512171312
0.33000000000000007 25281.694733696422
0.3600000000000001 23547.404747120694
0.3900000000000001 21053.647961917995
0.42000000000000015 18062.709170387505
0.4500000000000002 14872.221671705936
0.4800000000000002 11785.927775461367
0.5100000000000002 9084.980090354176
0.5400000000000003 7002.57511486087
0.5700000000000003 5704.2530685319325
0.6000000000000003 5275.499569872785
0.6300000000000003 5717.453823292191
0.6600000000000004 6950.6705557418045
0.6900000000000004 8826.129818689718
0.7200000000000004 11142.069388709337
0.7500000000000004 13664.810068234068
0.7800000000000005 16151.52783603558
0.8100000000000005 18372.89118351607
0.8400000000000005 20133.59718229353
0.8700000000000006 21289.081287506924
0.9000000000000006 21757.03070105551
0.9300000000000006 21522.782924793944
0.9600000000000006 20638.244818572224
0.9900000000000007 19214.547260055464
1.0200000000000007 17409.281158315447
1.0500000000000007 15409.682654883269
1.0800000000000007 13413.545015128177
1.1100000000000008 11609.833803140109
1.1400000000000008 10160.952698787127
1.1700000000000008 9188.356212634328
1.2000000000000008 8762.772601503679
1.2300000000000009 8899.764343749794
1.260000000000001 9560.768105370571
1.290000000000001 10659.234133134536
1.320000000000001 12071.00820456027
1.350000000000001 13647.777719561573
1.380000000000001 15232.187231262675
1.410000000000001 16673.15165826373
1.440000000000001 17839.940784530158
1.470000000000001 18633.768790875303
1.500000000000001 18995.889644416377
1.5300000000000011 18911.544329885404
1.5600000000000012 18409.523082518775
1.5900000000000012 17557.52399853458
1.6200000000000012 16453.916868529726
1.6500000000000012 15216.852968541381
1.6800000000000013 13971.907672431122
1.7100000000000013 12839.545773891532
1.7400000000000013 11923.663231815017
1.7700000000000014 11302.290061850057
1.8000000000000014 11021.262437234598
1.8300000000000014 11091.334188277944
1.8600000000000014 11488.827488817382
1.8900000000000015 12159.580299212457
1.9200000000000015 13025.639032341165
1.9500000000000015 13993.921297490517
1.9800000000000015 14965.926203634479
2.0100000000000016 15847.516999101792
2.0400000000000014 16557.83643471005
2.070000000000001 17036.534710356973
2.100000000000001 17248.682549205718
2.130000000000001 17186.985603306388
2.1600000000000006 16871.196031123887
2.1900000000000004 16344.895414215502
2.22 15670.081268377478
2.25 14920.193757899497
2.28 14172.348054009737
2.3099999999999996 13499.585461306855
2.3399999999999994 12963.912913331611
2.369999999999999 12610.78194213388
2.399999999999999 12465.477511899548
2.429999999999999 12531.67194055788
2.4599999999999986 12792.169576630513
2.4899999999999984 13211.653771042875
2.5199999999999982 13741.063158911058
2.549999999999998 14323.086553524867
2.579999999999998 14898.187245537127
2.6099999999999977 15410.544436907716
2.6399999999999975 15813.338361264558
2.6699999999999973 16072.894914181205
2.699999999999997 16171.337975257939
2.729999999999997 16107.55832209567
2.7599999999999967 15896.48265000103
2.7899999999999965 15566.792925150343
2.8199999999999963 15157.39570060522
2.849999999999996 14713.05282797076
2.879999999999996 14279.648662119718
2.9099999999999957 13899.584731299143
2.9399999999999955 13607.755200535508
2.9699999999999953 13428.475730772745
2.999999999999995 13373.623427589513
3.029999999999995 13442.11113402296
3.0599999999999947 13620.677585276346
3.0899999999999945 13885.84822758542
3.1199999999999943 14206.809103297493
3.149999999999994 14548.860032227796
3.179999999999994 14877.07398506061
3.2099999999999937 15159.786814388386
3.2399999999999936 15371.57825176017
3.2699999999999934 15495.472555830402
3.299999999999993 15524.178907084042
3.329999999999993 15460.296748903782
3.3599999999999928 15315.520438907388
3.3899999999999926 15108.973920753198
3.4199999999999924 14864.890043556434
3.449999999999992 14609.903360665758
3.479999999999992 14370.24940615461
3.509999999999992 14169.157997523675
3.5399999999999916 14024.692612055997
3.5699999999999914 13948.22881796162
3.599999999999991 13943.689491428266
3.629999999999991 14007.571442547032
3.659999999999991 14129.71692626931
3.6899999999999906 14294.710456956653
3.7199999999999904 14483.72551420791
3.7499999999999902 14676.609623851062
3.77999999999999 14853.985010406635
3.80999999999999 14999.151966810161
3.8399999999999896 15099.614175449518
3.8699999999999894 15148.093452431734
3.8999999999999893 15142.960151384754
3.929999999999989 15088.069167542999
3.959999999999989 14992.051465780421
3.9899999999999887 14867.164576949956
4.019999999999989 14727.843378600854
4.049999999999989 14589.115891284926
4.079999999999989 14465.052234727349
4.10999999999999 14367.401894501636
4.13999999999999 14304.54649813115
4.16999999999999 14280.855631250617
4.19999999999999 14296.486880115568
4.229999999999991 14347.62422685611
4.259999999999991 14427.103769407446
4.289999999999991 14525.340783650745
4.319999999999991 14631.44558430994
4.349999999999992 14734.40353499152
4.379999999999992 14824.195969366096
4.409999999999992 14892.751562662403
4.439999999999992 14934.642139933647
4.469999999999993 14947.467877329516
4.499999999999993 14931.911775379785
4.529999999999993 14891.478318830908
4.559999999999993 14831.962421906912
4.589999999999994 14760.719278323553
4.619999999999994 14685.821608500954
4.649999999999994 14615.197136620623
4.679999999999994 14555.835374929906
4.709999999999995 14513.139710640722
4.739999999999995 14490.48153703937
4.769999999999995 14488.988994187934
4.799999999999995 14507.576882683577
4.829999999999996 14543.199068461581
4.859999999999996 14591.283684151866
4.889999999999996 14646.294662640856
4.919999999999996 14702.355094688364
4.949999999999997 14753.864276048836
4.979999999999997 14796.046032659351
5.009999999999997 14825.377413843327
5.039999999999997 14839.862574815004
5.069999999999998 14839.133683982478
5.099999999999998 14824.3802524742
5.129999999999998 14798.124855678088
5.159999999999998 14763.8791485649
5.189999999999999 14725.72251679207
5.219999999999999 14687.851683055509
5.249999999999999 14654.149038161266
5.279999999999999 14627.81136051851
5.31 14611.073207092479
5.34 14605.046771225418
5.37 14609.685375280407
5.4 14623.866957516126
5.430000000000001 14645.581071112989
5.460000000000001 14672.192342984015
5.490000000000001 14700.748873427012
5.520000000000001 14728.301722144599
5.550000000000002 14752.201708276683
5.580000000000002 14770.344763063325
5.610000000000002 14781.34569801277
5.640000000000002 14784.627261214617
5.670000000000003 14780.421630879782
5.700000000000003 14769.69001558862
5.730000000000003 14753.974804206202
5.760000000000003 14735.203419639034
5.790000000000004 14715.468233202137
5.820000000000004 14696.805129218405
5.850000000000004 14680.993518613337
5.880000000000004 14669.39649907906
5.910000000000005 14662.853839153782
5.940000000000005 14661.63503409465
5.970000000000005 14665.453317348018
6.000000000000005 14673.533965889113
6.030000000000006 14684.726191861331
6.060000000000006 14697.644201032368
6.090000000000006 14710.821728009969
6.120000000000006 14722.863263095567
6.150000000000007 14732.577325640363
6.180000000000007 14739.079795479509
6.210000000000007 14741.859025159327
6.240000000000007 14740.799535118102
6.270000000000008 14736.16510819672
6.300000000000008 14728.54504673376
6.330000000000008 14718.772467144374
6.360000000000008 14707.824764591813
6.390000000000009 14696.71723466509
6.420000000000009 14686.400669236184
6.450000000000009 14677.672250797406
6.480000000000009 14671.108630669745
6.51000000000001 14667.025261113438
6.54000000000001 14665.464115278242
6.57000000000001 14666.208888118948
6.60000000000001 14668.82429675342
6.6300000000000106 14672.713806378863
6.660000000000011 14677.188570234866
6.690000000000011 14681.54074978035
6.720000000000011 14685.11288275408
6.7500000000000115 14687.35770823155
6.780000000000012 14687.883437677308
6.810000000000012 14686.480523014105
6.840000000000012 14683.129742529176
6.8700000000000125 14677.99146814463
6.900000000000013 14671.378174190271
6.930000000000013 14663.714543545744
6.960000000000013 14655.4890299748
6.9900000000000135 14647.202664521172
7.020000000000014 14639.320703474139
7.050000000000014 14632.230162340455
7.080000000000014 14626.207799003125
7.1100000000000145 14621.400259558533
7.140000000000015 14617.817804303662
7.170000000000015 14615.341618562315
7.200000000000015 14613.742773276364
7.2300000000000155 14612.709923160939
7.260000000000016 14611.883990750955
7.290000000000016 14610.895166656413
7.320000000000016 14609.398725905083
7.3500000000000165 14607.10661228215
7.380000000000017 14603.812342212934
7.410000000000017 14599.406991262433
7.440000000000017 14593.885593975438
7.4700000000000175 14587.342675834343
7.500000000000018 14579.958949791597
7.530000000000018 14571.98058305474
7.560000000000018 14563.693308838461
7.5900000000000185 14555.393751534528
7.620000000000019 14547.361040297852
7.650000000000019 14539.831415962968
7.680000000000019 14532.978563556153
7.7100000000000195 14526.901076068785
7.74000000000002 14521.617272247253
7.77000000000002 14517.068456978413
7.80000000000002 14513.129119274088
7.8300000000000205 14509.623457519763
7.860000000000021 14506.345828538846
7.890000000000021 14503.0830799471
7.920000000000021 14499.636655895363
7.9500000000000215 14495.842722430252
7.980000000000022 14491.58763307938
8.010000000000021 14486.81777414876
8.04000000000002 14481.543252848722
8.07000000000002 14475.834876144982
8.10000000000002 14469.814844882587
8.130000000000019 14463.6425504275
8.160000000000018 14457.497303702015
8.190000000000017 14451.55929837597
8.220000000000017 14445.991484352993
8.250000000000016 14440.924223033951
8.280000000000015 14436.443219904188
8.310000000000015 14432.582942084658
8.340000000000014 14429.325490065337
8.370000000000013 14426.605016317726
8.400000000000013 14424.316854339695
8.430000000000012 14422.330478516342
8.460000000000012 14420.504991925365
8.49000000000001 14418.705130590099
8.52000000000001 14416.816237531777
8.55000000000001 14414.756621259774
8.580000000000009 14412.486337926104
8.610000000000008 14410.011060073784
8.640000000000008 14407.380824703805
8.670000000000007 14404.684608716974
8.700000000000006 14402.040469347103
8.730000000000006 14399.583014065152
8.760000000000005 14397.449334316505
8.790000000000004 14395.764760094795
8.820000000000004 14394.630732740736
8.850000000000003 14394.11544085807
8.880000000000003 14394.247923034583
8.910000000000002 14395.016045073224
8.940000000000001 14396.368825358739
8.97 14398.222592143738
9.0 14400.470566850043
9.03 14402.99399852133
9.059999999999999 14405.673656623205
9.089999999999998 14408.400852109457
9.119999999999997 14411.086277518354
9.149999999999997 14413.666586365252
9.179999999999996 14416.108174138099
9.209999999999996 14418.407392517334
9.239999999999995 14420.587369554016
9.269999999999994 14422.691047815202
9.299999999999994 14424.77433575453
9.329999999999993 14426.89686537681
9.359999999999992 14429.113039523327
9.389999999999992 14431.464378442788
9.419999999999991 14433.973626601472
9.44999999999999 14436.64125955543
9.47999999999999 14439.445530046745
9.50999999999999 14442.344566118756
9.539999999999988 14445.280527130502
9.569999999999988 14448.18603884504
9.599999999999987 14450.99203191274
9.629999999999987 14453.63451407672
9.659999999999986 14456.059326596984
9.689999999999985 14458.225807109022
9.719999999999985 14460.11052314418
9.749999999999984 14461.70852311859
9.779999999999983 14463.032392342942
9.809999999999983 14464.10631256674
9.839999999999982 14464.9591703518
9.869999999999981 14465.618323335666
9.89999999999998 14466.105252743995
9.92999999999998 14466.4312649335
9.95999999999998 14466.59071802848
9.989999999999979 14466.559133410494
10.019999999999978 13305.115687812064
10.049999999999978 10614.832633862881
10.079999999999977 6813.414270442366
10.109999999999976 2424.875589343718
10.139999999999976 -1987.562613754635
10.169999999999975 -5892.0046938365895
10.199999999999974 -8850.913509858483
10.229999999999974 -10568.559410093
10.259999999999973 -10917.925562705423
10.289999999999973 -9945.210129313737
10.319999999999972 -7852.96842537248
10.349999999999971 -4965.332521503527
10.37999999999997 -1680.7297006192236
10.40999999999997 1581.3226109401066
10.43999999999997 4432.395890921575
10.469999999999969 6559.930045590684
10.499999999999968 7759.610520765224
10.529999999999967 7952.282158114077
10.559999999999967 7184.474370144963
10.589999999999966 5613.749484232808
10.619999999999965 3481.7680198598428
10.649999999999965 1079.296165444901
10.679999999999964 -1292.0331850622676
10.709999999999964 -3356.3574222203974
10.739999999999963 -4894.354076476371
10.769999999999962 -5764.925113279822
10.799999999999962 -5915.934897184461
10.829999999999961 -5383.602394710537
10.85999999999996 -4281.5510805552985
10.88999999999996 -2781.606078416255
10.919999999999959 -1089.2613706169577
10.949999999999958 582.9104871914454
10.979999999999958 2040.6518390007059
11.009999999999957 3129.344595386011
11.039999999999957 3749.085608507057
11.069999999999956 3862.2076572473593
11.099999999999955 3492.923972748417
11.129999999999955 2719.728016032584
11.159999999999954 1661.997596896247
11.189999999999953 462.8325364977574
11.219999999999953 -729.5265174808554
11.249999999999952 -1779.3898530558545
11.279999999999951 -2578.3986101632318
11.30999999999995 -3055.8958586665312
11.33999999999995 -3184.0425529350578
11.36999999999995 -2977.534812976336
11.399999999999949 -2488.413946124832
11.429999999999948 -1796.9855450526572
11.459999999999948 -1000.2371491230269
11.489999999999947 -199.3100487795427
11.519999999999946 512.4534279033159
11.549999999999946 1059.5602243279714
11.579999999999945 1391.5213042529929
11.609999999999944 1486.530652666324
11.639999999999944 1351.5510291301935
11.669999999999943 1019.0978422267638
11.699999999999942 541.3820528001107
11.729999999999942 -17.293660650381756
11.759999999999941 -588.8646938456294
11.78999999999994 -1109.5362523444535
11.81999999999994 -1526.6304898244418
11.84999999999994 -1803.5762250747946
11.879999999999939 -1922.6396821578548
11.909999999999938 -1885.2884691002473
11.939999999999937 -1710.3505526489187
11.969999999999937 -1430.382805751612
11.999999999999936 -1086.8199501486997
12.029999999999935 -724.5625262704243
12.059999999999935 -386.65818393150613
12.089999999999934 -109.69261626628818
12.119999999999933 79.68854020039052
12.149999999999933 166.8229356392771
12.179999999999932 149.55708360006415
12.209999999999932 37.33714388430128
12.239999999999931 -150.9024689557051
12.26999999999993 -389.67268914519724
12.29999999999993 -650.3166772865832
12.329999999999929 -904.4279068988992
12.359999999999928 -1126.9137449500702
12.389999999999928 -1298.402927508677
12.419999999999927 -1406.7998318254315
12.449999999999926 -1447.9010326576104
12.479999999999926 -1425.0981168274573
12.509999999999925 -1348.2985329857504
12.539999999999925 -1232.2523034135247
12.569999999999924 -1094.5216103854539
12.599999999999923 -953.3538366147178
12.629999999999923 -825.6927478664968
12.659999999999922 -725.5292536966624
12.689999999999921 -662.7255359084329
12.71999999999992 -642.3907338033415
12.74999999999992 -664.8134187304697
12.77999999999992 -725.8967379420865
12.809999999999919 -817.9938021930376
12.839999999999918 -931.0319775344531
12.869999999999918 -1053.7615488242022
12.899999999999917 -1174.9958280714789
12.929999999999916 -1284.722261268356
12.959999999999916 -1374.9938841102205
12.989999999999915 -1440.5203817005731
13.019999999999914 -1478.9391109019489
13.049999999999914 -1490.777292588719
13.079999999999913 -1479.1332750673391
13.109999999999912 -1449.1447571944725
13.139999999999912 -1407.3157101856734
13.169999999999911 -1360.770056399456
13.19999999999991 -1316.5099862077466
13.22999999999991 -1280.7656703940197
13.25999999999991 -1258.478653510409
13.289999999999909 -1252.9555752527604
13.319999999999908 -1265.6946507565121
13.349999999999907 -1296.3975714054689
13.379999999999907 -1343.14519268373
13.409999999999906 -1402.6950447395418
13.439999999999905 -1470.8752914154593
13.469999999999905 -1543.0512451126642
13.499999999999904 -1614.6077142882764
13.529999999999903 -1681.3809922902385
13.559999999999903 -1740.0245073617705
13.589999999999902 -1788.2593380480498
13.619999999999902 -1825.0202335946278
13.6499999999999 -1850.4443952603247
13.6799999999999 -1865.7626686352135
13.7099999999999 -1873.0955170698671
13.739999999999899 -1875.1462284866857
13.769999999999898 -1874.87265609033
13.799999999999898 -1875.1566878065648
13.829999999999897 -1878.2854313532403
13.859999999999896 -1885.8306079793765
13.889999999999896 -1898.5906305337703
13.919999999999895 -1916.5627649981982
13.949999999999894 -1939.1797524914239
13.979999999999894 -1965.0273454000032
14.009999999999893 -1991.9486901753162
14.039999999999893 -2017.30750881528
14.069999999999892 -2038.2879839552177
14.099999999999891 -2052.2305435940953
14.12999999999989 -2056.918129371456
14.15999999999989 -2050.7567692188113
14.18999999999989 -2032.9083041310796
14.219999999999889 -2003.3590640146224
14.249999999999888 -1962.9279414594178
14.279999999999887 -1913.228831407144
14.309999999999887 -1856.5315490195132
14.339999999999886 -1795.576647386179
14.369999999999886 -1733.3450415686514
14.399999999999885 -1672.8273394245057
14.429999999999884 -1616.7438769080845
14.459999999999884 -1567.2641264250763
14.489999999999883 -1525.7927459616465
14.519999999999882 -1492.8635262859784
14.549999999999882 -1468.1383047898537
14.579999999999881 -1450.5106910865638
14.60999999999988 -1438.287187768562
14.63999999999988 -1429.4079993201244
14.66999999999988 -1421.695226597358
14.699999999999878 -1413.08970684027
14.729999999999878 -1401.879007283987
14.759999999999877 -1386.8583295930775
14.789999999999877 -1367.4215496859954
14.819999999999876 -1343.6237427066678
14.849999999999875 -1316.1375330805233
14.879999999999875 -1286.1231919370493
14.909999999999874 -1255.0235994829106
14.939999999999873 -1224.3376352471666
14.969999999999873 -1195.4477497079604
14.999999999999872 -1169.4651720312734
15.029999999999871 -1147.1538876059735
15.05999999999987 -1128.8722953171587
15.08999999999987 -1114.5249239907355
15.11999999999987 -1103.6048836600935
15.149999999999869 -1095.2767873444561
15.179999999999868 -1088.4916714877631
15.209999999999868 -1082.1535530164672
15.239999999999867 -1075.2591271911938
15.269999999999866 -1066.994803345089
15.299999999999866 -1056.7995276251975
15.329999999999865 -1044.4376718424528
15.359999999999864 -1030.0337553699305
15.389999999999864 -1014.1012929394213
15.419999999999863 -997.5111677170532
15.449999999999863 -981.3722174680108
15.479999999999862 -966.8987679369666
15.509999999999861 -955.2784888661525
15.53999999999986 -947.5999599096057
15.56999999999986 -944.7278862527495
15.59999999999986 -947.1991663909552
15.629999999999859 -955.1584419315252
15.659999999999858 -968.2996166208131
15.689999999999857 -985.8614474551224
15.719999999999857 -1006.6943383846266
15.749999999999856 -1029.3489317936562
15.779999999999855 -1052.2450700573295
15.809999999999855 -1073.9192398577702
15.839999999999854 -1093.0907961615605
15.869999999999854 -1108.726065036017
15.899999999999853 -1120.1044066085149
15.929999999999852 -1126.8713316621581
15.959999999999852 -1129.0243342180415
15.989999999999851 -1126.855202599723
16.01999999999985 -1120.8891922440564
16.04999999999985 -1111.8216917428997
16.079999999999853 -1100.4300780346389
16.109999999999854 -1087.4928760033547
