# Results for "element" with Id # 12120 for search config "initial" at position: x0: 31.3; y0: 0; z0: 26.3157684211
# time PRESSURE
0.03 1322.5283512234291
0.06 3782.113222953286
0.09 7103.481668901575
0.12 10947.211337529743
0.15 14941.913959561329
0.18 18718.474288562444
0.21 21942.893055608627
0.24 24344.854141660446
0.27 25739.66408694938
0.30000000000000004 26041.82636689791
0.33000000000000007 25269.232865759037
0.3600000000000001 23537.78555855834
0.3900000000000001 21047.136135506495
0.42000000000000015 18059.06088882039
0.4500000000000002 14870.71138868722
0.4800000000000002 11785.463471806273
0.5100000000000002 9084.280967975537
0.5400000000000003 7000.375151897948
0.5700000000000003 5699.490968068827
0.6000000000000003 5267.471445836113
0.6300000000000003 5705.9086807098665
0.6600000000000004 6935.8478047564
0.6900000000000004 8808.733590925387
0.7200000000000004 11123.188144502255
0.7500000000000004 13645.7847998296
0.7800000000000005 16133.778449623649
0.8100000000000005 18357.717994530096
0.8400000000000005 20121.98312644592
0.8700000000000006 21281.530041213693
0.9000000000000006 21753.469016919655
0.9300000000000006 21522.55466784762
0.9600000000000006 20640.197367853383
0.9900000000000007 19217.20473395745
1.0200000000000007 17411.067687603812
1.0500000000000007 15409.157506679836
1.0800000000000007 13409.610245278645
1.1100000000000008 11601.88285542593
1.1400000000000008 10148.941825699985
1.1700000000000008 9172.791822206342
1.2000000000000008 8744.625474046748
1.2300000000000009 8880.323054291448
1.260000000000001 9541.457374448386
1.290000000000001 10641.418224119298
1.320000000000001 12055.808379853708
1.350000000000001 13635.927763323498
1.380000000000001 15223.945962205933
1.410000000000001 16668.28400877557
1.440000000000001 17837.768298582265
1.470000000000001 18633.281910654136
1.500000000000001 18995.900146917957
1.5300000000000011 18910.856980721866
1.5600000000000012 18407.09699483314
1.5900000000000012 17552.605174783646
1.6200000000000012 16446.12284391206
1.6500000000000012 15206.20105832714
1.6800000000000013 13958.78631354032
1.7100000000000013 12824.637889592406
1.7400000000000013 11907.836222233564
1.7700000000000014 11286.46917922239
1.8000000000000014 11006.308623550145
1.8300000000000014 11077.94002117199
1.8600000000000014 11477.445144420524
1.8900000000000015 12150.38503616778
1.9200000000000015 13018.528839518473
1.9500000000000015 13988.549313503892
1.9800000000000015 14961.759019944007
2.0100000000000016 15843.909506510738
2.0400000000000014 16554.11379915818
2.070000000000001 17032.073350920047
2.100000000000001 17242.97980561052
2.130000000000001 17179.71296117884
2.1600000000000006 16862.22899280081
2.1900000000000004 16334.31896670644
2.22 15658.171344311011
2.25 14907.375603993394
2.28 14159.138760228972
2.3099999999999996 13486.526221892234
2.3399999999999994 12951.500422025394
2.369999999999999 12599.406505269531
2.399999999999999 12455.377084068785
2.429999999999999 12522.906671046536
2.4599999999999986 12784.621189602574
2.4899999999999984 13205.048498012817
2.5199999999999982 13735.014319019567
2.549999999999998 14317.151821692629
2.579999999999998 14891.930538867711
2.6099999999999977 15403.594569095125
2.6399999999999975 15805.435437444006
2.6699999999999973 16063.918245860434
2.699999999999997 16161.312667133694
2.729999999999997 16096.640269644828
2.7599999999999967 15884.925554736301
2.7899999999999965 15554.904260653639
2.8199999999999963 15145.48956066539
2.849999999999996 14701.406057112079
2.879999999999996 14268.46781408707
2.9099999999999957 13888.986735069553
2.9399999999999955 13597.763295413748
2.9699999999999953 13419.029000818933
2.999999999999995 13364.596121495868
3.029999999999995 13433.337642818886
3.0599999999999947 13611.978362386955
3.0899999999999945 13877.052495056138
3.1199999999999943 14197.77167439743
3.149999999999994 14539.472201574754
3.179999999999994 14867.267738219956
3.2099999999999937 15149.534329198388
3.2399999999999936 15360.887872370498
3.2699999999999934 15484.382824634078
3.299999999999993 15512.751973048362
3.329999999999993 15448.611417322325
3.3599999999999928 15303.665121939732
3.3899999999999926 15097.039549192894
3.4199999999999924 14852.9631249
3.449999999999992 14598.058595873374
3.479999999999992 14358.542726638398
3.509999999999992 14157.620938752298
3.5399999999999916 14013.328476867304
3.5699999999999914 13937.011545800146
3.599999999999991 13932.565893330364
3.629999999999991 13996.466656983084
3.659999999999991 14118.542927795519
3.6899999999999906 14283.37621089583
3.7199999999999904 14472.147464077272
3.7499999999999902 14664.72159970703
3.77999999999999 14841.74584507799
3.80999999999999 14986.549492629696
3.8399999999999896 15086.665697710672
3.8699999999999894 15134.842606214665
3.8999999999999893 15129.470358707898
3.929999999999989 15074.414806496416
3.959999999999989 14978.30799673925
3.9899999999999887 14853.399150316554
4.019999999999989 14714.106928831094
4.049999999999989 14575.437579441996
4.079999999999989 14451.436883496635
4.10999999999999 14353.830550507899
4.13999999999999 14290.97978523297
4.16999999999999 14267.239294559171
4.19999999999999 14282.758774101649
4.229999999999991 14333.721740956054
4.259999999999991 14412.97101871099
4.289999999999991 14510.934802751932
4.319999999999991 14616.739802178665
4.349999999999992 14719.389459434722
4.379999999999992 14808.882573263716
4.409999999999992 14877.162813854231
4.439999999999992 14918.812835676432
4.469999999999993 14931.438377108874
4.499999999999993 14915.722408760786
4.529999999999993 14875.164062859421
4.559999999999993 14815.548649935556
4.589999999999994 14744.218752415678
4.619999999999994 14669.233076281043
4.649999999999994 14598.506129013855
4.679999999999994 14539.01627107403
4.709999999999995 14496.159066365803
4.739999999999995 14473.302274045276
4.769999999999995 14471.574487795036
4.799999999999995 14489.894419531316
4.829999999999996 14525.222450770169
4.859999999999996 14572.99506154668
4.889999999999996 14627.68572788707
4.919999999999996 14683.426775914046
4.949999999999997 14734.624309800633
4.979999999999997 14776.506237937292
5.009999999999997 14805.551436102849
5.039999999999997 14819.763424805258
5.069999999999998 14818.771083890642
5.099999999999998 14803.758713187826
5.129999999999998 14777.2429717426
5.159999999999998 14742.729394019869
5.189999999999999 14704.291779401752
5.219999999999999 14666.122357308863
5.249999999999999 14632.100317875116
5.279999999999999 14605.421265131748
5.31 14588.320165903053
5.34 14581.910232684968
5.37 14586.1467537262
5.4 14599.911440098283
5.430000000000001 14621.198496755129
5.460000000000001 14647.376966236134
5.490000000000001 14675.499042339336
5.520000000000001 14702.618950427008
5.550000000000002 14726.088764842101
5.580000000000002 14743.804362200637
5.610000000000002 14754.379883625093
5.640000000000002 14757.236497739532
5.670000000000003 14752.60400303168
5.700000000000003 14741.440485011219
5.730000000000003 14725.28449995814
5.760000000000003 14706.061203833337
5.790000000000004 14685.862116414632
5.820000000000004 14666.723524720732
5.850000000000004 14650.42678056049
5.880000000000004 14638.337807387365
5.910000000000005 14631.299501849886
5.940000000000005 14629.58495161936
5.970000000000005 14632.911335108696
6.000000000000005 14640.508458469305
6.030000000000006 14651.229482700388
6.060000000000006 14663.691351470654
6.090000000000006 14676.429287448833
6.120000000000006 14688.048390848924
6.150000000000007 14697.356539651513
6.180000000000007 14703.467968696963
6.210000000000007 14705.868996337114
6.240000000000007 14704.442286172056
6.270000000000008 14699.44965733644
6.300000000000008 14691.478903105972
6.330000000000008 14681.362182468745
6.360000000000008 14670.076292830492
6.390000000000009 14658.635842132193
6.420000000000009 14647.990309974506
6.450000000000009 14638.935005323356
6.480000000000009 14632.04455228179
6.51000000000001 14627.63164598226
6.54000000000001 14625.733878819967
6.57000000000001 14626.130105395488
6.60000000000001 14628.381116121165
6.6300000000000106 14631.886529167303
6.660000000000011 14635.953509162518
6.690000000000011 14639.870091422054
6.720000000000011 14642.974719346534
6.7500000000000115 14644.715586047792
6.780000000000012 14644.696749457846
6.810000000000012 14642.705519452256
6.840000000000012 14638.72077408443
6.8700000000000125 14632.900752539805
6.900000000000013 14625.556683823252
6.930000000000013 14617.113903328183
6.960000000000013 14608.063704079234
6.9900000000000135 14598.911704385862
7.020000000000014 14590.128232258956
7.050000000000014 14582.106474961462
7.080000000000014 14575.130996471036
7.1100000000000145 14569.358023268804
7.140000000000015 14564.808824338574
7.170000000000015 14561.376079675303
7.200000000000015 14558.842305702005
7.2300000000000155 14556.907187265448
7.260000000000016 14555.221678794773
7.290000000000016 14553.424465084077
7.320000000000016 14551.177574471247
7.3500000000000165 14548.197905044399
7.380000000000017 14544.282347174336
7.410000000000017 14539.322785737855
7.440000000000017 14533.31199187409
7.4700000000000175 14526.339136487486
7.500000000000018 14518.575965351949
7.530000000000018 14510.255566241052
7.560000000000018 14501.646319181576
7.5900000000000185 14493.023622091601
7.620000000000019 14484.642526411006
7.650000000000019 14476.713973323369
7.680000000000019 14469.385746943932
7.7100000000000195 14462.730298390552
7.74000000000002 14456.740178989785
7.77000000000002 14451.333715210238
7.80000000000002 14446.36562303249
7.8300000000000205 14441.64316336216
7.860000000000021 14436.946899417706
7.890000000000021 14432.054216317978
7.920000000000021 14426.761894354526
7.9500000000000215 14420.90534288732
7.980000000000022 14414.373828541382
8.010000000000021 14407.120170337186
8.04000000000002 14399.16402664253
8.07000000000002 14390.589221824477
8.10000000000002 14381.534240110364
8.130000000000019 14372.176920748618
8.160000000000018 14362.714939804227
8.190000000000017 14353.344906224438
8.220000000000017 14344.242914847693
8.250000000000016 14335.549598501148
8.280000000000015 14327.358589741722
8.310000000000015 14319.710355316582
8.340000000000014 14312.591448173294
8.370000000000013 14305.938871235992
8.400000000000013 14299.649176015171
8.430000000000012 14293.591476817499
8.460000000000012 14287.623246707448
8.49000000000001 14281.607344735452
8.52000000000001 14275.427496236223
8.55000000000001 14269.000517921675
8.580000000000009 14262.283826376162
8.610000000000008 14255.279406183217
8.640000000000008 14248.033499798395
8.670000000000007 14240.62986916592
8.700000000000006 14233.181211494026
8.730000000000006 14225.8174324222
8.760000000000005 14218.671271489504
8.790000000000004 14211.8645248364
8.820000000000004 14205.495617512954
8.850000000000003 14199.627939445832
8.880000000000003 14194.283997272003
8.910000000000002 14189.443638389093
8.940000000000001 14185.047392303375
8.97 14181.005252941733
9.0 14177.208495346924
9.03 14173.542907685473
9.059999999999999 14169.900748154661
9.089999999999998 14166.192018603353
9.119999999999997 14162.352162270918
9.149999999999997 14158.346311229776
9.179999999999996 14154.170915252736
9.209999999999996 14149.85178244289
9.239999999999995 14145.439190026798
9.269999999999994 14141.00235501268
9.299999999999994 14136.62227331496
9.329999999999993 14132.382106970383
9.359999999999992 14128.358340403793
9.389999999999992 14124.613432037511
9.419999999999991 14121.189250993371
9.44999999999999 14118.103226644367
9.47999999999999 14115.347002683175
9.50999999999999 14112.88612004329
9.539999999999988 14110.664455924283
9.569999999999988 14108.612093377014
9.599999999999987 14106.658042215897
9.629999999999987 14104.738439722514
9.659999999999986 14102.801600432747
9.689999999999985 14100.811857252811
9.719999999999985 14098.751947077693
9.749999999999984 14096.62676228851
9.779999999999983 14094.466238268426
9.809999999999983 14092.318569052883
9.839999999999982 14090.24291034508
9.869999999999981 14088.301224031577
9.89999999999998 14086.549414060373
9.92999999999998 14085.034421736917
9.95999999999998 14083.790997566892
9.989999999999979 14082.840235382553
10.019999999999978 12922.114724075616
10.049999999999978 10234.150981122182
10.079999999999977 6435.916578436402
10.109999999999976 2051.0864383775065
10.139999999999976 -2357.1352697094453
10.169999999999975 -6256.882817177549
10.199999999999974 -9210.925198159975
10.229999999999974 -10924.05386670011
10.259999999999973 -11269.632729371559
10.289999999999973 -10293.703281621405
10.319999999999972 -8198.008234047082
10.349999999999971 -5305.491616263012
10.37999999999997 -2013.5639055009287
10.40999999999997 1258.5756539178633
10.43999999999997 4121.912146732523
10.469999999999969 6262.619557934296
10.499999999999968 7474.989696645394
10.529999999999967 7678.9518580841295
10.559999999999967 6920.973358000492
10.589999999999966 5359.409846810007
10.619999999999965 3237.224762193982
10.649999999999965 846.4656058620415
10.679999999999964 -1510.4514732581815
10.709999999999964 -3557.6364586468258
10.739999999999963 -5076.459207744196
10.769999999999962 -5926.962775181782
10.799999999999962 -6058.22643735758
10.829999999999961 -5507.4105501804925
10.85999999999996 -4388.594591318445
10.88999999999996 -2873.5380495049567
10.919999999999959 -1167.2583076427488
10.949999999999958 518.3667574673215
10.979999999999958 1989.7866501701715
11.009999999999957 3092.9477913586184
11.039999999999957 3728.283071796561
11.069999999999956 3858.2243194918437
11.099999999999955 3506.8929115620576
11.129999999999955 2752.58441822403
11.159999999999954 1714.4526206069702
11.189999999999953 535.4199602904504
11.219999999999953 -636.3694415925131
11.249999999999952 -1665.2328286461275
11.279999999999951 -2442.7518535322033
11.30999999999995 -2898.174962465535
11.33999999999995 -3003.569166373525
11.36999999999995 -2773.560541384045
11.399999999999949 -2260.157243830335
11.429999999999948 -1543.673430489737
11.459999999999948 -721.1465391041609
11.489999999999947 106.1959250970686
11.519999999999946 844.8895550907747
11.549999999999946 1419.280360781139
11.579999999999945 1778.6736333629
11.609999999999944 1901.0102913117316
11.639999999999944 1792.9577462805958
11.669999999999943 1486.7067697926843
11.699999999999942 1034.1389022394987
11.729999999999942 499.253894916812
11.759999999999941 -50.117156320949974
11.78999999999994 -550.3117896842099
11.81999999999994 -948.6621284657633
11.84999999999994 -1208.4784061084915
11.879999999999939 -1311.787320090699
11.909999999999938 -1259.7197353300712
11.939999999999937 -1070.707527277555
11.969999999999937 -776.8977322486818
11.999999999999936 -419.34315091740365
12.029999999999935 -42.62981933748532
12.059999999999935 310.4051597351196
12.089999999999934 603.27765258639
12.119999999999933 809.3296866318485
12.149999999999933 913.7881707337751
12.179999999999932 914.3179187931711
12.209999999999932 820.1440987061494
12.239999999999931 649.9848282214004
12.26999999999993 429.1301956695929
12.29999999999993 186.07801970848672
12.329999999999929 -50.87331956536432
12.359999999999928 -256.6825258851063
12.389999999999928 -411.9789249457424
12.419999999999927 -504.62867821479347
12.449999999999926 -530.3668148873729
12.479999999999926 -492.5172423823914
12.509999999999925 -400.9230434777545
12.539999999999925 -270.2785602046698
12.569999999999924 -118.10585576599156
12.599999999999923 37.370420190046715
12.629999999999923 179.21112083111635
12.659999999999922 293.41822660883986
12.689999999999921 370.11492756824595
12.71999999999992 404.1794190499353
12.74999999999992 395.3205394290877
12.77999999999992 347.648672261558
12.809999999999919 268.8403625148099
12.839999999999918 169.0168676576381
12.869999999999918 59.48991408949996
12.899999999999917 -48.489372702466966
12.929999999999916 -144.8538086705936
12.959999999999916 -221.61449024988218
12.989999999999915 -273.4626588432626
13.019999999999914 -298.0478849402881
13.049999999999914 -295.9367773966913
13.079999999999913 -270.2918732379387
13.109999999999912 -226.33239780080152
13.139999999999912 -170.64905694325415
13.169999999999911 -110.45074239314435
13.19999999999991 -52.82164957779344
13.22999999999991 -4.051619813288097
13.25999999999991 30.902925148035763
13.289999999999909 48.78637883248718
13.319999999999908 48.21932453754659
13.349999999999907 29.68862433219943
13.379999999999907 -4.633343466350815
13.409999999999906 -51.210027046748706
13.439999999999905 -105.55907793583737
13.469999999999905 -162.72491169487614
13.499999999999904 -217.77086368345164
13.529999999999903 -266.24035042236017
13.559999999999903 -304.54835778440554
13.589999999999902 -330.2677460417491
13.619999999999902 -342.2968040108714
13.6499999999999 -340.8974800939516
13.6799999999999 -327.6061993780002
13.7099999999999 -305.031048191283
13.739999999999899 -276.5570121890826
13.769999999999898 -245.98711552031753
13.799999999999898 -217.1540202508008
13.829999999999897 -193.54994860479476
13.859999999999896 -177.99870750683078
13.889999999999896 -172.40229534592433
13.919999999999895 -177.58263859910411
13.949999999999894 -193.23494965686072
13.979999999999894 -217.99514132125103
14.009999999999893 -249.61162712528164
14.039999999999893 -285.2000107298029
14.069999999999892 -321.5549671346847
14.099999999999891 -355.48834860084924
14.12999999999989 -384.1497529094035
14.15999999999989 -405.3076629999379
14.18999999999989 -417.56141814975626
14.219999999999889 -420.461795776145
14.249999999999888 -414.52506410813214
14.279999999999887 -401.147659410066
14.309999999999887 -382.43252127423244
14.339999999999886 -360.94477966427223
14.369999999999886 -339.4239129258602
14.399999999999885 -320.4833221923303
14.429999999999884 -306.33390271790614
14.459999999999884 -298.5603087979915
14.489999999999883 -297.96952645571935
14.519999999999882 -304.5265421946503
14.549999999999882 -317.38519899787747
14.579999999999881 -335.00860759063437
14.60999999999988 -355.3596842815127
14.63999999999988 -376.1383529331274
14.66999999999988 -395.0405789809854
14.699999999999878 -410.0111114058906
14.729999999999878 -419.46262480165956
14.759999999999877 -422.436728514133
14.789999999999877 -418.6907616938602
14.819999999999876 -408.704011081753
14.849999999999875 -393.6043950948349
14.879999999999875 -375.02433506133696
14.909999999999874 -354.9019732826536
14.939999999999873 -335.2529270760287
14.969999999999873 -317.9424040075274
14.999999999999872 -304.48764895168074
15.029999999999871 -295.9105955108951
15.05999999999987 -292.64793444215144
15.08999999999987 -294.52538436896873
15.11999999999987 -300.7993840490898
15.149999999999869 -310.2623182444459
15.179999999999868 -321.39767469992717
15.209999999999868 -332.56264017845103
15.239999999999867 -342.17429110823934
15.269999999999866 -348.8828458378872
15.299999999999866 -351.71091691438374
15.329999999999865 -350.1443918585286
15.359999999999864 -344.16564854906954
15.389999999999864 -334.22911337357283
15.419999999999863 -321.19093687845134
15.449999999999863 -306.1982128127668
15.479999999999862 -290.5457570617493
15.509999999999861 -275.52405101220285
15.53999999999986 -262.27395903899634
15.56999999999986 -251.66336513542842
15.59999999999986 -244.2003467957228
15.629999999999859 -239.99071970424254
15.659999999999858 -238.7428238292778
15.689999999999857 -239.8196757729245
15.719999999999857 -242.32786350113355
15.749999999999856 -245.23183931965855
15.779999999999855 -247.48011300987622
15.809999999999855 -248.12459835551516
15.839999999999854 -246.41792310773553
15.869999999999854 -241.88798117606794
15.899999999999853 -234.3779574446998
15.929999999999852 -224.05808013618915
15.959999999999852 -211.39059624466867
15.989999999999851 -197.06165307840774
16.01999999999985 -181.89112861545095
16.04999999999985 -166.73693803949828
16.079999999999853 -152.4165489491983
16.109999999999854 -139.589514569657
16.139999999999855 -128.70015528179286
