# Results for "element" with Id # 17245 for search config "initial" at position: x0: 31.3; y0: 0; z0: 0
# time PRESSURE
0.03 1322.511746866241
0.06 3782.074063984371
0.09 7103.429507062779
0.12 10947.173266660706
0.15 14941.93508351424
0.18 18718.61576091504
0.21 21943.22640867722
0.24 24345.451144287596
0.27 25740.58267237724
0.30000000000000004 26043.094800258397
0.33000000000000007 25270.835569582967
0.3600000000000001 23539.654312928775
0.3900000000000001 21049.149687719695
0.42000000000000015 18061.054210899994
0.4500000000000002 14872.493764206254
0.4800000000000002 11786.842680105368
0.5100000000000002 9085.089624895727
0.5400000000000003 7000.494999485413
0.5700000000000003 5698.8714930716105
0.6000000000000003 5266.140447606763
0.6300000000000003 5703.973680916842
0.6600000000000004 6933.488667415855
0.6900000000000004 8806.187075321748
0.7200000000000004 11120.725416668362
0.7500000000000004 13643.68345007269
0.7800000000000005 16132.29129880373
0.8100000000000005 18357.041711578568
0.8400000000000005 20122.230397074105
0.8700000000000006 21282.709464017957
0.9000000000000006 21755.476575176453
0.9300000000000006 21525.17953842491
0.9600000000000006 20643.14266122732
0.9900000000000007 19220.121694195273
1.0200000000000007 17413.599131585393
1.0500000000000007 15410.984423316673
1.0800000000000007 13410.494590680002
1.1100000000000008 11601.700043037548
1.1400000000000008 10147.6980982332
1.1700000000000008 9170.624042057465
1.2000000000000008 8741.783483603365
1.2300000000000009 8877.13695938936
1.260000000000001 9538.294097748869
1.290000000000001 10638.632773172854
1.320000000000001 12053.696221815575
1.350000000000001 13634.684871018275
1.380000000000001 15223.642645172515
1.410000000000001 16668.85700468442
1.440000000000001 17839.03285668567
1.470000000000001 18634.962262078887
1.500000000000001 18997.67337798693
1.5300000000000011 18912.402962144122
1.5600000000000012 18408.145909332496
1.5900000000000012 17552.974869332535
1.6200000000000012 16445.740332579757
1.6500000000000012 15205.105488627156
1.6800000000000013 13957.114051526858
1.7100000000000013 12822.593356569841
1.7400000000000013 11905.65426191198
1.7700000000000014 11284.37575253396
1.8000000000000014 11004.486518581916
1.8300000000000014 11076.504895794353
1.8600000000000014 11476.435138621928
1.8900000000000015 12149.764458263568
1.9200000000000015 13018.20387171725
1.9500000000000015 13988.391669655543
1.9800000000000015 14961.632388461705
2.0100000000000016 15843.693629033698
2.0400000000000014 16553.722074181038
2.070000000000001 17031.4616046991
2.100000000000001 17242.14582673674
2.130000000000001 17178.688292174742
2.1600000000000006 16861.065749602676
2.1900000000000004 16333.07512383101
2.22 15656.897771448266
2.25 14906.107271115981
2.28 14157.891345390375
2.3099999999999996 13485.297941412013
2.3399999999999994 12950.277769773955
2.369999999999999 12598.171847025733
2.399999999999999 12454.115941565768
2.429999999999999 12521.612887672463
2.4599999999999986 12783.298981127255
2.4899999999999984 13203.711234031814
2.5199999999999982 13733.680679831243
2.549999999999998 14315.840592517867
2.579999999999998 14890.65542856298
2.6099999999999977 15402.360352025755
2.6399999999999975 15804.236275439402
2.6699999999999973 16062.738409752445
2.699999999999997 16160.129425536945
2.729999999999997 16095.428189176659
2.7599999999999967 15883.661212351826
2.7899999999999965 15553.570371051837
2.8199999999999963 15144.07778077431
2.849999999999996 14699.918017956397
2.879999999999996 14266.914388020612
2.9099999999999957 13887.38585264153
2.9399999999999955 13596.136884746733
2.9699999999999953 13417.399668035328
2.999999999999995 13362.984132556001
3.029999999999995 13431.758584239265
3.0599999999999947 13610.441742602106
3.0899999999999945 13875.561315023066
3.1199999999999943 14196.322831329424
3.149999999999994 14538.057557701195
3.179999999999994 14865.875606767615
3.2099999999999937 15148.151147266844
3.2399999999999936 15359.499870433832
3.2699999999999934 15482.97754529468
3.299999999999993 15511.319498517209
3.329999999999993 15447.14521124501
3.3599999999999928 15302.162406484342
3.3899999999999926 15095.501240442924
3.4199999999999924 14851.393399055312
3.449999999999992 14596.46410842818
3.479999999999992 14356.931579353319
3.509999999999992 14156.001580965778
3.5399999999999916 14011.708628686498
3.5699999999999914 13935.397258670706
3.599999999999991 13930.960875029294
3.629999999999991 13994.871852950908
3.659999999999991 14116.956480405017
3.6899999999999906 14281.793750708961
3.7199999999999904 14470.562586304375
3.7499999999999902 14663.126417595386
3.77999999999999 14840.131606159885
3.80999999999999 14984.907223060489
3.8399999999999896 15084.986750975246
3.8699999999999894 15133.119028976258
3.8999999999999893 15127.695194144611
3.929999999999989 15072.582355090772
3.959999999999989 14976.413858650034
3.9899999999999887 14851.440105538699
4.019999999999989 14712.080741718371
4.049999999999989 14573.342664311183
4.079999999999989 14449.271710375533
4.10999999999999 14351.59294752887
4.13999999999999 14288.666264246382
4.16999999999999 14264.844574033286
4.19999999999999 14280.275455009296
4.229999999999991 14331.140218431661
4.259999999999991 14410.279702666585
4.289999999999991 14508.120647872736
4.319999999999991 14613.788814822541
4.349999999999992 14716.28723927921
4.379999999999992 14805.614790124082
4.409999999999992 14873.715517361357
4.439999999999992 14915.172603470824
4.469999999999993 14927.592242203194
4.499999999999993 14911.65768010101
4.529999999999993 14870.868092503717
4.559999999999993 14811.00857603364
4.589999999999994 14739.42120968425
4.619999999999994 14664.163906496553
4.649999999999994 14593.150234309463
4.679999999999994 14533.357344820895
4.709999999999995 14490.1795779249
4.739999999999995 14466.983608408396
4.769999999999995 14464.89737750497
4.799999999999995 14482.83946129477
4.829999999999996 14517.770433050699
4.859999999999996 14565.127644008806
4.889999999999996 14619.38598341105
4.919999999999996 14674.678941579772
4.949999999999997 14725.413589932967
4.979999999999997 14766.818608826634
5.009999999999997 14795.373480028955
5.039999999999997 14809.08225209126
5.069999999999998 14807.574211091385
5.099999999999998 14792.034008153836
5.129999999999998 14764.97873019239
5.159999999999998 14729.914563567092
5.189999999999999 14690.91605852349
5.219999999999999 14652.176047986111
5.249999999999999 14617.574361042776
5.279999999999999 14590.307352898313
5.31 14572.61104229388
5.34 14565.600335239835
5.37 14569.232691743999
5.4 14582.391931758631
5.430000000000001 14603.07400778871
5.460000000000001 14628.649196458262
5.490000000000001 14656.170192544996
5.520000000000001 14682.691100633117
5.550000000000002 14705.563466259147
5.580000000000002 14722.682483565257
5.610000000000002 14732.661671973396
5.640000000000002 14734.92185770611
5.670000000000003 14729.692595362165
5.700000000000003 14717.932125365189
5.730000000000003 14701.179922383755
5.760000000000003 14681.36234437295
5.790000000000004 14660.572589572379
5.820000000000004 14640.849423678712
5.850000000000004 14623.976998698605
5.880000000000004 14611.324169355881
5.910000000000005 14603.737183623556
5.940000000000005 14601.492812756987
5.970000000000005 14604.311227587712
6.000000000000005 14611.424052026527
6.030000000000006 14621.685451903833
6.060000000000006 14633.712328951298
6.090000000000006 14646.038694452895
6.120000000000006 14657.267186121366
6.150000000000007 14666.201852920123
6.180000000000007 14671.951460943921
6.210000000000007 14673.995757009723
6.240000000000007 14672.210814561118
6.270000000000008 14666.852114249978
6.300000000000008 14658.501870661354
6.330000000000008 14647.988093807486
6.360000000000008 14636.285200107712
6.390000000000009 14624.40726022875
6.420000000000009 14613.305084378784
6.450000000000009 14603.77680874681
6.480000000000009 14596.401138260142
6.51000000000001 14591.496024368775
6.54000000000001 14589.105267446317
6.57000000000001 14589.01414533709
6.60000000000001 14590.789259884397
6.6300000000000106 14593.835230068617
6.660000000000011 14597.463361724087
6.690000000000011 14600.964944678464
6.720000000000011 14603.680925554754
6.7500000000000115 14605.061577353292
6.780000000000012 14604.712442483255
6.810000000000012 14602.421922353173
6.840000000000012 14598.169711743694
6.8700000000000125 14592.114523220489
6.900000000000013 14584.567588828097
6.930000000000013 14575.953815583702
6.960000000000013 14566.763571836618
6.9900000000000135 14557.500788739497
7.020000000000014 14548.633526994647
7.050000000000014 14540.55223108641
7.080000000000014 14533.538079803897
7.1100000000000145 14527.743160097387
7.140000000000015 14523.183895554288
7.170000000000015 14519.747805869292
7.200000000000015 14517.212264492025
7.2300000000000155 14515.272341707512
7.260000000000016 14513.575344547127
7.290000000000016 14511.757195954684
7.320000000000016 14509.47834989961
7.3500000000000165 14506.455803445653
7.380000000000017 14502.488517924296
7.410000000000017 14497.472883044959
7.440000000000017 14491.408805877167
7.4700000000000175 14484.395424712162
7.500000000000018 14476.617347215124
7.530000000000018 14468.323428643083
7.560000000000018 14459.800245783252
7.5900000000000185 14451.34365660311
7.620000000000019 14443.230867413531
7.650000000000019 14435.695541205168
7.680000000000019 14428.90749126965
7.7100000000000195 14422.959661156381
7.74000000000002 14417.862696213455
7.77000000000002 14413.54986991464
7.80000000000002 14409.887115861306
7.8300000000000205 14406.68860340957
7.860000000000021 14403.737089974244
7.890000000000021 14400.807312379458
7.920000000000021 14397.688693885231
7.9500000000000215 14394.204804906196
7.980000000000022 14390.229001387457
8.010000000000021 14385.694733423494
8.04000000000002 14380.599603889668
8.07000000000002 14375.003270979474
8.10000000000002 14369.01849484733
8.130000000000019 14362.796472747576
8.160000000000018 14356.508884248466
8.190000000000017 14350.327904075393
8.220000000000017 14344.40670290315
8.250000000000016 14338.865675746487
8.280000000000015 14333.781593395694
8.310000000000015 14329.180668118475
8.340000000000014 14325.037165241398
8.370000000000013 14321.2770684209
8.400000000000013 14317.78695613112
8.430000000000012 14314.427080999605
8.460000000000012 14311.046110634514
8.49000000000001 14307.497047654066
8.52000000000001 14303.651007707887
8.55000000000001 14299.40833803269
8.580000000000009 14294.70664299068
8.610000000000008 14289.527241749849
8.640000000000008 14283.897976729586
8.670000000000007 14277.88866654758
8.700000000000006 14271.604774419031
8.730000000000006 14265.176953815788
8.760000000000005 14258.745320593043
8.790000000000004 14252.443056384021
8.820000000000004 14246.380326422359
8.850000000000003 14240.630687209132
8.880000000000003 14235.224457493607
8.910000000000002 14230.147321454244
8.940000000000001 14225.344514072178
8.97 14220.730407405328
9.0 14216.202007686295
9.03 14211.653019837471
9.059999999999999 14206.985335062906
9.089999999999998 14202.120051511634
9.119999999999997 14197.002864478256
9.149999999999997 14191.602290639034
9.179999999999996 14185.911980761499
9.209999999999996 14179.951741799447
9.239999999999995 14173.7635684758
9.269999999999994 14167.410408816531
9.299999999999994 14160.972402239315
9.329999999999993 14154.53750530669
9.359999999999992 14148.19276629756
9.389999999999992 14142.016859413403
9.419999999999991 14136.071775079035
9.44999999999999 14130.399257676328
9.47999999999999 14125.018385249306
9.50999999999999 14119.923621908585
9.539999999999988 14115.08789013622
9.569999999999988 14110.469053823273
9.599999999999987 14106.021577488473
9.629999999999987 14101.707042590213
9.659999999999986 14097.501361187156
9.689999999999985 14093.398359369075
9.719999999999985 14089.40902926846
9.749999999999984 14085.562249669269
9.779999999999983 14081.905229405047
9.809999999999983 14078.495481395035
9.839999999999982 14075.392880228932
9.869999999999981 14072.651332187552
9.89999999999998 14070.310399570268
9.92999999999998 14068.392691673953
9.95999999999998 14066.90137074945
9.989999999999979 14065.819106152909
10.019999999999978 12905.039379379956
10.049999999999978 10216.788427590542
10.079999999999977 6417.675789990619
10.109999999999976 2031.271033121279
10.139999999999976 -2379.016909135834
10.169999999999975 -6280.937051684159
10.199999999999974 -9236.923163510743
10.229999999999974 -10951.672581430947
10.259999999999973 -11298.74082460509
10.289999999999973 -10324.529056304624
10.319999999999972 -8231.10647250561
10.349999999999971 -5341.544104612773
10.37999999999997 -2053.1321548211818
10.40999999999997 1215.2145308897436
10.43999999999997 4074.770704352419
10.469999999999969 6211.859613061551
10.499999999999968 7420.719171404442
10.529999999999967 7621.062990289479
10.559999999999967 6859.096608345553
10.589999999999966 5292.997807565066
10.619999999999965 3165.723331232847
10.649999999999965 769.4962611550005
10.679999999999964 -1592.969099091517
10.709999999999964 -3645.4604618053313
10.739999999999963 -5169.097239254076
10.769999999999962 -6023.798591206612
10.799999999999962 -6158.648247328794
10.829999999999961 -5610.895476028388
10.85999999999996 -4494.726881509084
10.88999999999996 -2981.968204756775
10.919999999999959 -1277.6314218307893
10.949999999999958 406.47827442194864
10.979999999999958 1876.918665537274
11.009999999999957 2979.7366006759826
11.039999999999957 3615.419955210497
11.069999999999956 3746.3920932884976
11.099999999999955 3396.708018912639
11.129999999999955 2644.562614908479
11.159999999999954 1609.0042185523002
11.189999999999953 432.8700745773968
11.219999999999953 -735.7485329410355
11.249999999999952 -1761.191558307465
11.279999999999951 -2535.0467428341544
11.30999999999995 -2986.570621965749
11.33999999999995 -3087.8568442945334
11.36999999999995 -2853.5854593149343
11.399999999999949 -2335.846260800318
11.429999999999948 -1615.0547065268677
11.459999999999948 -788.3568339877751
11.489999999999947 42.91722673815693
11.519999999999946 785.2177502715729
11.549999999999946 1362.8300548576076
11.579999999999945 1725.0265131807646
11.609999999999944 1849.7427033516542
11.639999999999944 1743.6655724080633
11.669999999999943 1439.0265820209304
11.699999999999942 987.7647716023857
11.729999999999942 453.94971030841634
11.759999999999941 -94.5099938207651
11.78999999999994 -593.8719086317317
11.81999999999994 -991.3904944377139
11.84999999999994 -1250.3043187510275
11.879999999999939 -1352.580139814727
11.909999999999938 -1299.3046727379806
11.939999999999937 -1108.8835243814256
11.969999999999937 -813.4543639282535
11.999999999999936 -454.0749480009699
12.029999999999935 -75.3478413096837
12.059999999999935 279.8649897541987
12.089999999999934 575.0490820025749
12.119999999999933 783.513694084713
12.149999999999933 890.4534470207451
12.179999999999932 893.5051497016195
12.209999999999932 801.8733672796544
12.239999999999931 634.2636073119814
12.26999999999993 415.9630467914016
12.29999999999993 175.4656097388572
12.329999999999929 -58.950167807939835
12.359999999999928 -262.25809252563727
12.389999999999928 -415.0874925483154
12.419999999999927 -505.2930843476193
12.449999999999926 -528.5931972621931
12.479999999999926 -488.2973248323167
12.509999999999925 -394.2403629686203
12.539999999999925 -261.1174887412805
12.569999999999924 -106.46484401233582
12.599999999999923 51.456826213824655
12.629999999999923 195.65800704606792
12.659999999999922 312.0867201687483
12.689999999999921 390.81644950521724
12.71999999999992 426.6785264338093
12.74999999999992 419.347462398436
12.77999999999992 372.9295046107701
12.809999999999919 295.1152725126386
12.839999999999918 196.05377398533648
12.869999999999918 87.10169771283384
12.899999999999917 -20.42789290858265
12.929999999999916 -116.3903781502168
12.959999999999916 -192.70779065674148
12.989999999999915 -243.97698148763905
13.019999999999914 -267.75590075698864
13.049999999999914 -264.5310587827109
13.079999999999913 -237.40355762613348
13.109999999999912 -191.55247366147248
13.139999999999912 -133.54825104906712
13.169999999999911 -70.59574748944786
13.19999999999991 -9.785884560607926
13.22999999999991 42.574661344355896
13.25999999999991 81.50270226695706
13.289999999999909 103.70773312432341
13.319999999999908 107.77509421655638
13.349999999999907 94.16292380797255
13.379999999999907 65.02492140177807
13.409999999999906 23.891730771194425
13.439999999999905 -24.75088112381481
13.469999999999905 -75.94404380306256
13.499999999999904 -124.75157776840182
13.529999999999903 -166.72422041694838
13.559999999999903 -198.29225471262893
13.589999999999902 -217.05086350595693
13.619999999999902 -221.9262107783881
13.6499999999999 -213.21350136840618
13.6799999999999 -192.48284217651837
13.7099999999999 -162.36761094103832
13.739999999999899 -126.26624644792774
13.769999999999898 -87.99097613831398
13.799999999999898 -51.391681512586764
13.829999999999897 -19.970674546800367
13.859999999999896 3.450868336450285
13.889999999999896 16.977171622228735
13.919999999999895 19.78482220508332
13.949999999999894 12.1621993091589
13.979999999999894 -4.560044731872855
14.009999999999893 -28.17689631470562
14.039999999999893 -55.85547637400111
14.069999999999892 -84.43935822781494
14.099999999999891 -110.78194365441027
14.12999999999989 -132.06748840666836
14.15999999999989 -146.09286481507257
14.18999999999989 -151.47990867362444
14.219999999999889 -147.7971681276159
14.249999999999888 -135.57641419350605
14.279999999999887 -116.228163748173
14.309999999999887 -91.86623418919973
14.339999999999886 -65.0621608801856
14.369999999999886 -38.561552196068256
14.399999999999885 -14.991784768682233
14.429999999999884 3.4129405990121566
14.459999999999884 15.039171060993125
14.489999999999883 19.05017417514096
14.519999999999882 15.455009184154125
14.549999999999882 5.082858444103657
14.579999999999881 -10.534809310591971
14.60999999999988 -29.355598618736817
14.63999999999988 -49.06663423619548
14.66999999999988 -67.34863468476982
14.699999999999878 -82.13294693049633
14.729999999999878 -91.82129055914994
14.759999999999877 -95.44480847482035
14.789999999999877 -92.74787044619387
14.819999999999876 -84.19066134329044
14.849999999999875 -70.87236057172416
14.879999999999875 -54.38717912589258
14.909999999999874 -36.63132768022064
14.939999999999873 -19.582594721097287
14.969999999999873 -5.08020494966143
14.999999999999872 5.368744266103606
15.029999999999871 10.746236483197832
15.05999999999987 10.62126870671568
15.08999999999987 5.174385376755712
15.11999999999987 -4.846654989311312
15.149999999999869 -18.23220195611211
15.179999999999868 -33.46453794392851
15.209999999999868 -48.901100262263625
15.239999999999867 -62.96073992632733
15.269999999999866 -74.29705184321611
15.299999999999866 -81.93732821089793
15.329999999999865 -85.37209748094057
15.359999999999864 -84.58578570076229
15.389999999999864 -80.03188870730115
15.419999999999863 -72.55963052535719
15.449999999999863 -63.300084650200354
15.479999999999862 -53.5260081390339
15.509999999999861 -44.50144659631817
15.53999999999986 -37.33694115045063
15.56999999999986 -32.868716976711795
15.59999999999986 -31.573692997416952
15.629999999999859 -33.52825023086333
15.659999999999858 -38.414220509303235
15.689999999999857 -45.57324082955378
15.719999999999857 -54.09443432072076
15.749999999999856 -62.928221189509195
15.779999999999855 -71.01405600362679
15.809999999999855 -77.40040856694634
15.839999999999854 -81.345344276254
15.869999999999854 -82.39257784283849
15.899999999999853 -80.4137329259334
15.929999999999852 -75.60007089012646
15.959999999999852 -68.42184401592807
15.989999999999851 -59.56433881681852
16.01999999999985 -49.842097220594894
16.04999999999985 -40.10244721543381
16.079999999999853 -31.130507196543036
16.109999999999854 -23.56288232439951
16.139999999999855 -17.819326026976654
16.169999999999856 -14.072099071107012
