# Results for "element" with Id # 50841 for search config "initial" at position: x0: 31.3; y0: 0; z0: 52.6315368421
# time PRESSURE
0.03 1322.5653405042385
0.06 3782.2071144339902
0.09 7103.632312574602
0.12 10947.39773305479
0.15 14942.095762877381
0.18 18718.59548476603
0.21 21942.88817033447
0.24 24344.65730425345
0.27 25739.22049986952
0.30000000000000004 26041.104613513857
0.33000000000000007 25268.235595874186
0.3600000000000001 23536.5559761949
0.3900000000000001 21045.758098976145
0.42000000000000015 18057.651921320205
0.4500000000000002 14869.409333850219
0.4800000000000002 11784.408883522228
0.5100000000000002 9083.598115923553
0.5400000000000003 7000.154611554723
0.5700000000000003 5699.776291678816
0.6000000000000003 5268.251395546249
0.6300000000000003 5707.11573336054
0.6600000000000004 6937.362529153739
0.6900000000000004 8810.394733728415
0.7200000000000004 11124.80757644913
0.7500000000000004 13647.166516477238
0.7800000000000005 16134.740429280133
0.8100000000000005 18358.114977251356
0.8400000000000005 20121.727552809138
0.8700000000000006 21280.60784875759
0.9000000000000006 21751.947163859186
0.9300000000000006 21520.57789557091
0.9600000000000006 20637.973828998536
0.9900000000000007 19214.981499934394
1.0200000000000007 17409.09932174654
1.0500000000000007 15407.672140253853
1.0800000000000007 13408.778145769733
1.1100000000000008 11601.79214865414
1.1400000000000008 10149.584974998552
1.1700000000000008 9174.065008463536
1.2000000000000008 8746.34110846744
1.2300000000000009 8882.234208674436
1.260000000000001 9543.290819177873
1.290000000000001 10642.9119856347
1.320000000000001 12056.748412760755
1.350000000000001 13636.178208074782
1.380000000000001 15223.46811254667
1.410000000000001 16667.140667238833
1.440000000000001 17836.112582843547
1.470000000000001 18631.33221839588
1.500000000000001 18993.905690694854
1.5300000000000011 18909.059675231812
1.5600000000000012 18405.69624449232
1.5900000000000012 17551.731171107433
1.6200000000000012 16445.82213469667
1.6500000000000012 15206.436044215232
1.6800000000000013 13959.447787661049
1.7100000000000013 12825.567594420849
1.7400000000000013 11908.854929423074
1.7700000000000014 11287.405213531056
1.8000000000000014 11007.021912099062
1.8300000000000014 11078.338183575645
1.8600000000000014 11477.489723764771
1.8900000000000015 12150.088264317958
1.9200000000000015 13017.943014999417
1.9500000000000015 13987.751982785801
1.9800000000000015 14960.837467528901
2.0100000000000016 15842.947536998061
2.0400000000000014 16553.18267969204
2.070000000000001 17031.227446735684
2.100000000000001 17242.256370050618
2.130000000000001 17179.134526258375
2.1600000000000006 16861.80669806813
2.1900000000000004 16334.055215759508
2.22 15658.060803318089
2.25 14907.404537163722
2.28 14159.283352655004
2.3099999999999996 13486.751202088499
2.3399999999999994 12951.759314470042
2.369999999999999 12599.644515119042
2.399999999999999 12455.53675086237
2.429999999999999 12522.935684079193
2.4599999999999986 12784.48088871102
2.4899999999999984 13204.721244019123
2.5199999999999982 13734.50804064235
2.549999999999998 14316.500411185267
2.579999999999998 14891.189729324988
2.6099999999999977 15402.833809097718
2.6399999999999975 15804.727167761399
2.6699999999999973 16063.326541261726
2.699999999999997 16160.883348809042
2.729999999999997 16096.39430889739
2.7599999999999967 15884.856950116602
2.7899999999999965 15554.982584342899
2.8199999999999963 15145.666436775438
2.849999999999996 14701.624214041844
2.879999999999996 14268.670831834603
2.9099999999999957 13889.127714288123
2.9399999999999955 13597.811004605903
2.9699999999999953 13418.97072837595
2.999999999999995 13364.437177846965
3.029999999999995 13433.09807701021
3.0599999999999947 13611.687892026828
3.0899999999999945 13876.744820252745
3.1199999999999943 14197.479291663594
3.149999999999994 14539.22245421168
3.179999999999994 14867.08052135512
3.2099999999999937 15149.42141737516
3.2399999999999936 15360.853550245603
3.2699999999999934 15484.425322445575
3.299999999999993 15512.865194178874
3.329999999999993 15448.78656074534
3.3599999999999928 15303.892006703489
3.3899999999999926 15097.307571384215
3.4199999999999924 14853.261862922678
3.449999999999992 14598.378284638244
3.479999999999992 14358.874801020544
3.509999999999992 14157.95863991857
3.5399999999999916 14013.667544196238
3.5699999999999914 13937.35086901823
3.599999999999991 13932.907965347193
3.629999999999991 13996.817683425326
3.659999999999991 14118.912468137723
3.6899999999999906 14283.776329083516
3.7199999999999904 14472.591532169557
3.7499999999999902 14665.222923777423
3.77999999999999 14842.316309112652
3.80999999999999 14987.19842542128
3.8399999999999896 15087.399134461146
3.8699999999999894 15135.663072376563
3.8999999999999893 15130.377021684777
3.929999999999989 15075.403898482626
3.959999999999989 14979.37363777983
3.9899999999999887 14854.53443348229
4.019999999999989 14715.305107139831
4.049999999999989 14576.693120404507
4.079999999999989 14452.746446561652
4.10999999999999 14355.193736678782
4.13999999999999 14292.39952960992
4.16999999999999 14268.721842801384
4.19999999999999 14284.313166238117
4.229999999999991 14335.358974248858
4.259999999999991 14414.702961318575
4.289999999999991 14512.772983832021
4.319999999999991 14618.694546770992
4.349999999999992 14721.469208826282
4.379999999999992 14811.093429866665
4.409999999999992 14879.508397165993
4.439999999999992 14921.294574232965
4.469999999999993 14934.055946129169
4.499999999999993 14918.474362282483
4.529999999999993 14878.048609013556
4.559999999999993 14818.564326183541
4.589999999999994 14747.364944684441
4.619999999999994 14672.510498461155
4.649999999999994 14601.91687291069
4.679999999999994 14542.563840841914
4.709999999999995 14499.848372296166
4.739999999999995 14477.139533444502
4.769999999999995 14475.566904797788
4.799999999999995 14494.049935254106
4.829999999999996 14529.549612565923
4.859999999999996 14577.502490615083
4.889999999999996 14632.381475865757
4.919999999999996 14688.318036406383
4.949999999999997 14739.717345612702
4.979999999999997 14781.806350788747
5.009999999999997 14811.063089593887
5.039999999999997 14825.490254360488
5.069999999999998 14824.716235291338
5.099999999999998 14809.925141521266
5.129999999999998 14783.633934996333
5.159999999999998 14749.348787513867
5.189999999999999 14711.144047515034
5.219999999999999 14673.21292077079
5.249999999999999 14639.435992833773
5.279999999999999 14613.010016149896
5.31 14596.171295862003
5.34 14590.034554769018
5.37 14594.55651228562
5.4 14608.61944755009
5.430000000000001 14630.217225154174
5.460000000000001 14656.717555151447
5.490000000000001 14685.171116495754
5.520000000000001 14712.631027645233
5.550000000000002 14736.448884876549
5.580000000000002 14754.520597303308
5.610000000000002 14765.459985623465
5.640000000000002 14768.68768784591
5.670000000000003 14764.433789331773
5.700000000000003 14753.657051858538
5.730000000000003 14737.896731765839
5.760000000000003 14719.07892675779
5.790000000000004 14699.296191208088
5.820000000000004 14680.585412031338
5.850000000000004 14664.72834620569
5.880000000000004 14653.090867986235
5.910000000000005 14646.515234763045
5.940000000000005 14645.273390120734
5.970000000000005 14649.08186992678
6.000000000000005 14657.169853507054
6.030000000000006 14668.389628423676
6.060000000000006 14681.356278103265
6.090000000000006 14694.601937589248
6.120000000000006 14706.727850606843
6.150000000000007 14716.538284625738
6.180000000000007 14723.145099838996
6.210000000000007 14726.033210385627
6.240000000000007 14725.083749241963
6.270000000000008 14720.557862128058
6.300000000000008 14713.043750395911
6.330000000000008 14703.374114313454
6.360000000000008 14692.526188404141
6.390000000000009 14681.515282969072
6.420000000000009 14671.291758564035
6.450000000000009 14662.652198200612
6.480000000000009 14656.172498938693
6.51000000000001 14652.165554566578
6.54000000000001 14650.666820498636
6.57000000000001 14651.451756429053
6.60000000000001 14654.078091930929
6.6300000000000106 14657.9427980468
6.660000000000011 14662.350286089675
6.690000000000011 14666.58571060092
6.720000000000011 14669.98487909504
6.7500000000000115 14671.992924752505
6.780000000000012 14672.211630696187
6.810000000000012 14670.425918552452
6.840000000000012 14666.611618154413
6.8700000000000125 14660.923350198182
6.900000000000013 14653.668041819055
6.930000000000013 14645.265956362931
6.960000000000013 14636.20303131433
6.9900000000000135 14626.979584751489
7.020000000000014 14618.060403589123
7.050000000000014 14609.832961934067
7.080000000000014 14602.576626395308
7.1100000000000145 14596.442963743859
7.140000000000015 14591.449386449764
7.170000000000015 14587.485849210954
7.200000000000015 14584.332742483919
7.2300000000000155 14581.68714403589
7.260000000000016 14579.197597239914
7.290000000000016 14576.502125128804
7.320000000000016 14573.263148768223
7.3500000000000165 14569.198437786274
7.380000000000017 14564.106013410195
7.410000000000017 14557.8795735912
7.440000000000017 14550.51535040685
7.4700000000000175 14542.108055743485
7.500000000000018 14532.838064245003
7.530000000000018 14522.950111912547
7.560000000000018 14512.728039513906
7.5900000000000185 14502.46568372045
7.620000000000019 14492.438316568005
7.650000000000019 14482.877876364819
7.680000000000019 14473.952690471811
7.7100000000000195 14465.753980512947
7.74000000000002 14458.289664056338
7.77000000000002 14451.489676188237
7.80000000000002 14445.216305546981
7.8300000000000205 14439.280088261905
7.860000000000021 14433.460935156088
7.890000000000021 14427.531537790543
7.920000000000021 14421.280004828242
7.9500000000000215 14414.528929045953
7.980000000000022 14407.150510246409
8.010000000000021 14399.07747922543
8.04000000000002 14390.307463699017
8.07000000000002 14380.901779660586
8.10000000000002 14370.978064271192
8.130000000000019 14360.698274518923
8.160000000000018 14350.250923765032
8.190000000000017 14339.831298958938
8.220000000000017 14329.622460968543
8.250000000000016 14319.77810332134
8.280000000000015 14310.408759253924
8.310000000000015 14301.574206868268
8.340000000000014 14293.281436049187
8.370000000000013 14285.487259880112
8.400000000000013 14278.106541560312
8.430000000000012 14271.024064146462
8.460000000000012 14264.109927393523
8.49000000000001 14257.236099225922
8.52000000000001 14250.29194031618
8.55000000000001 14243.197160032485
8.580000000000009 14235.910599046989
8.610000000000008 14228.434208762126
8.640000000000008 14220.81309017286
8.670000000000007 14213.130352608881
8.700000000000006 14205.498945476835
8.730000000000006 14198.05021036079
8.760000000000005 14190.920070738117
8.790000000000004 14184.235259901003
8.820000000000004 14178.101270123218
8.850000000000003 14172.590873427149
8.880000000000003 14167.73730358257
8.910000000000002 14163.531048567902
8.940000000000001 14159.921020537653
8.97 14156.820887333653
9.0 14154.11902151969
9.03 14151.69128286468
9.059999999999999 14149.413739838204
9.089999999999998 14147.175695012818
9.119999999999997 14144.890940263835
9.149999999999997 14142.504190701466
9.179999999999996 14139.993924271535
9.209999999999996 14137.37096662987
9.239999999999995 14134.673733388348
9.269999999999994 14131.961960440625
9.299999999999994 14129.309119515017
9.329999999999993 14126.79301654276
9.359999999999992 14124.485865193075
9.389999999999992 14122.44615304344
9.419999999999991 14120.711585021447
9.44999999999999 14119.29446821996
9.47999999999999 14118.180023173307
9.50999999999999 14117.32570447776
9.539999999999988 14116.665620924392
9.569999999999988 14116.11933829893
9.599999999999987 14115.605988737805
9.629999999999987 14115.050793255577
9.659999999999986 14114.387837833247
9.689999999999985 14113.564203567938
9.719999999999985 14112.544473592434
9.749999999999984 14111.315396980568
9.779999999999983 14109.891269550848
9.809999999999983 14108.308712780849
9.839999999999982 14106.61867093771
9.869999999999981 14104.878702819167
9.89999999999998 14103.145253829827
9.92999999999998 14101.469423055654
9.95999999999998 14099.894407947402
9.989999999999979 14098.453798927112
10.019999999999978 12937.050894677937
10.049999999999978 10248.188400090237
10.079999999999977 6448.824267066016
10.109999999999976 2062.6783944586655
10.139999999999976 -2346.945402246429
10.169999999999975 -6248.065187347807
10.199999999999974 -9203.36822593395
10.229999999999974 -10917.638378499523
10.259999999999973 -11264.31742692109
10.289999999999973 -10289.587384997638
10.319999999999972 -8195.345778959123
10.349999999999971 -5304.644910968886
10.37999999999997 -2014.9109721166535
10.40999999999997 1254.7479999126333
10.43999999999997 4115.490592447466
10.469999999999969 6253.691444583137
10.499999999999968 7463.805146484661
10.529999999999967 7665.834113243354
10.559999999999967 6906.2108731496955
10.589999999999966 5343.16703154197
10.619999999999965 3219.4972437817564
10.649999999999965 827.0894535481651
10.679999999999964 -1531.7473203630825
10.709999999999964 -3581.155549918058
10.739999999999963 -5102.464350569626
10.769999999999962 -5955.625409112263
10.799999999999962 -6089.606019180253
10.829999999999961 -5541.464228310357
10.85999999999996 -4425.2105750513465
10.88999999999996 -2912.580723497766
10.919999999999959 -1208.6142329245654
10.949999999999958 474.75253523274176
10.979999999999958 1943.8895207102776
11.009999999999957 3044.6595383177755
11.039999999999957 3677.423970779748
11.069999999999956 3804.567233700927
11.099999999999955 3450.192619900215
11.129999999999955 2692.6053466764934
11.159999999999954 1650.9895106527608
11.189999999999953 468.3104405835878
11.219999999999953 -707.2392207932908
11.249999999999952 -1739.9286028541221
11.279999999999951 -2521.2941004994263
11.30999999999995 -2980.541758001209
11.33999999999995 -3089.6971227683853
11.36999999999995 -2863.344924823469
11.399999999999949 -2353.450924101304
11.429999999999948 -1640.2862335777988
11.459999999999948 -820.8461144662026
11.489999999999947 3.6808280372174025
11.519999999999946 739.8639764238409
11.549999999999946 1312.0767823550188
11.579999999999945 1669.6453207606035
11.609999999999944 1790.5254649205492
11.639999999999944 1681.3955955302022
11.669999999999943 1374.4548081724195
11.699999999999942 921.5912634458589
11.729999999999942 386.8100407444329
11.759999999999941 -162.0538481293716
11.78999999999994 -661.3364125013276
11.81999999999994 -1058.373212367485
11.84999999999994 -1316.4855363590045
11.879999999999939 -1417.7205580733817
11.909999999999938 -1363.2392922425333
11.939999999999937 -1171.5121071630026
11.969999999999937 -874.731251279043
11.999999999999936 -513.9990197787221
12.029999999999935 -133.95143155546293
12.059999999999935 222.5271445096526
12.089999999999934 518.9115623738719
12.119999999999933 728.5119538663056
12.149999999999933 836.5335347538112
12.179999999999932 840.6297224014155
12.209999999999932 750.0245286137366
12.239999999999931 583.4453989063388
12.26999999999993 366.19905828829343
12.29999999999993 126.80743853727022
12.329999999999929 -106.397825909738
12.359999999999928 -308.3380892054575
12.389999999999928 -459.6048956629297
12.419999999999927 -548.0266895026442
12.449999999999926 -569.3010952911154
12.479999999999926 -526.7161801021232
12.509999999999925 -430.08263346989474
12.539999999999925 -294.0675805440191
12.569999999999924 -136.1694820054178
12.599999999999923 25.407696334320207
12.629999999999923 173.7428412986877
12.659999999999922 294.8524326822495
12.689999999999921 378.86989830566927
12.71999999999992 420.6792781166822
12.74999999999992 419.9903085396166
12.77999999999992 380.90997088844824
12.809999999999919 311.10799149897133
12.839999999999918 220.6916652332345
12.869999999999918 120.95229189027788
12.899999999999917 23.114097290993577
12.929999999999916 -62.7893114662865
12.959999999999916 -128.808485190773
12.989999999999915 -169.67886900688615
13.019999999999914 -183.09733355204645
13.049999999999914 -169.6792831788756
13.079999999999913 -132.63663353395324
13.109999999999912 -77.23513937861314
13.139999999999912 -10.104294184414684
13.169999999999911 61.51630952726519
13.19999999999991 130.51964948169297
13.22999999999991 190.595240331044
13.25999999999991 236.76257723038313
13.289999999999909 265.7350216455462
13.319999999999908 276.0979456904824
13.349999999999907 268.3028671388166
13.379999999999907 244.48961481339833
13.409999999999906 208.16833088730573
13.439999999999905 163.80012373157805
13.469999999999905 116.31876341902951
13.499999999999904 70.64009620320681
13.529999999999903 31.203219087225268
13.559999999999903 1.5809568424269276
13.589999999999902 -15.80878942583111
13.619999999999902 -19.86880613875783
13.6499999999999 -10.86037312202556
13.6799999999999 9.68693013502021
13.7099999999999 39.17937558289721
13.739999999999899 74.2536139422844
13.769999999999898 111.13190167681456
13.799999999999898 146.003447173918
13.829999999999897 175.39590712940048
13.859999999999896 196.503635587319
13.889999999999896 207.43848162309607
13.919999999999895 207.38529833301317
13.949999999999894 196.64744414265826
13.979999999999894 176.57939941740418
14.009999999999893 149.41650146372496
14.039999999999893 118.02396647769272
14.069999999999892 85.58896451862269
14.099999999999891 55.28694128992125
14.12999999999989 29.958905031234984
14.15999999999989 11.829261318510266
14.18999999999989 2.2928734122383765
14.219999999999889 1.7943965119081937
14.249999999999888 9.814787838754555
14.279999999999887 24.95586573063257
14.309999999999887 45.1146879163075
14.339999999999886 67.72906062365556
14.369999999999886 90.06274512152739
14.399999999999885 109.5014703216113
14.429999999999884 123.82886003560148
14.459999999999884 131.45250755115367
14.489999999999883 131.55586167417707
14.519999999999882 124.16306112446318
14.549999999999882 110.11050864517959
14.579999999999881 90.9299554750526
14.60999999999988 68.66069573921199
14.63999999999988 45.61239958288856
14.66999999999988 24.10417010209421
14.699999999999878 6.209810112942253
14.729999999999878 -6.461212093789151
14.759999999999877 -12.922936225441548
14.789999999999877 -12.898467286364516
14.819999999999876 -6.824148203994965
14.849999999999875 4.223939468635675
14.879999999999875 18.671059739651426
14.909999999999874 34.6356613421432
14.939999999999873 50.15038572519876
14.969999999999873 63.383998183096175
14.999999999999872 72.83565115000287
15.029999999999871 77.48717978121299
15.05999999999987 76.89935906012877
15.08999999999987 71.23804850478595
15.11999999999987 61.235138898204525
15.149999999999869 48.08687810961412
15.179999999999868 33.30251939417294
15.209999999999868 18.52234133523561
15.239999999999867 5.330584108392279
15.269999999999866 -4.9199203490940695
15.299999999999866 -11.249093336564131
15.329999999999865 -13.140486545391449
15.359999999999864 -10.575700953816325
15.389999999999864 -4.011372339220833
15.419999999999863 5.691290019842248
15.449999999999863 17.378565115284403
15.479999999999862 29.74398413486906
15.509999999999861 41.47842864436715
15.53999999999986 51.41720286558754
15.56999999999986 58.663245425715075
15.59999999999986 62.67369234682162
15.629999999999859 63.30346679035949
15.659999999999858 60.80203189674118
15.689999999999857 55.762959618758366
15.719999999999857 49.037543439492296
15.749999999999856 41.624635246190294
15.779999999999855 34.55606204832125
15.809999999999855 28.786262897659817
15.839999999999854 25.09407133433279
15.869999999999854 24.002312171957097
15.899999999999853 25.725674518234825
15.929999999999852 30.162714347006737
15.959999999999852 36.92463304846605
15.989999999999851 45.39388445014843
16.01999999999985 54.80875321755049
16.04999999999985 64.35598459323148
16.079999999999853 73.26134947782005
16.109999999999854 80.8768294446583
16.139999999999855 86.75249556710084
16.169999999999856 90.679347027148
16.199999999999857 92.6981517587185
16.22999999999986 93.07743372566226
