# Results for "element" with Id # 7169 for search config "initial" at position: x0: 31.3; y0: 0; z0: 118.420957895
# time PRESSURE
0.03 1322.8122379255049
0.06 3782.893690971916
0.09 7104.8843576430145
0.12 10949.26686257841
0.15 14944.554376915352
0.18 18721.533560229112
0.21 21946.115584393105
0.24 24347.917417765253
0.27 25742.21945791744
0.30000000000000004 26043.555450502034
0.33000000000000007 25269.911520107235
0.3600000000000001 23537.341286199455
0.3900000000000001 21045.682668474932
0.42000000000000015 18056.90017222121
0.4500000000000002 14868.29938537947
0.4800000000000002 11783.345666895118
0.5100000000000002 9083.010274694332
0.5400000000000003 7000.427574200968
0.5700000000000003 5701.194125052225
0.6000000000000003 5270.95401204542
0.6300000000000003 5711.076994314044
0.6600000000000004 6942.387966736575
0.6900000000000004 8816.140138995514
0.7200000000000004 11130.814756586344
0.7500000000000004 13652.914904876186
0.7800000000000005 16139.711039118769
0.8100000000000005 18361.860662946525
0.8400000000000005 20123.940582724685
0.8700000000000006 21281.17251410149
0.9000000000000006 21750.967920184437
0.9300000000000006 21518.373859326133
0.9600000000000006 20635.040385946813
0.9900000000000007 19211.921566326615
1.0200000000000007 17406.537940861264
1.0500000000000007 15406.168430563019
1.0800000000000007 13408.748449143803
1.1100000000000008 11603.455509990774
1.1400000000000008 10152.937432925088
1.1700000000000008 9178.885293653888
1.2000000000000008 8752.224075060078
1.2300000000000009 8888.647791921801
1.260000000000001 9549.646964132495
1.290000000000001 10648.644186235711
1.320000000000001 12061.384755014296
1.350000000000001 13639.400299882971
1.380000000000001 15225.148336862325
1.410000000000001 16667.352925833296
1.440000000000001 17835.11580589807
1.470000000000001 18629.529222687128
1.500000000000001 18991.785149164738
1.5300000000000011 18907.12896396668
1.5600000000000012 18404.41584443039
1.5900000000000012 17551.4586232896
1.6200000000000012 16446.772383036652
1.6500000000000012 15208.662468453473
1.6800000000000013 13962.845145870786
1.7100000000000013 12829.894594924228
1.7400000000000013 11913.7719647946
1.7700000000000014 11292.521669226524
1.8000000000000014 11011.945563395397
1.8300000000000014 11082.721402118541
1.8600000000000014 11481.06664256004
1.8900000000000015 12152.700377090272
1.9200000000000015 13019.551521905556
1.9500000000000015 13988.436566322587
1.9800000000000015 14960.782294624416
2.0100000000000016 15842.416646699998
2.0400000000000014 16552.487463107474
2.070000000000001 17030.689227335093
2.100000000000001 17242.16865005276
2.130000000000001 17179.72841351174
2.1600000000000006 16863.2242344052
2.1900000000000004 16336.333464379833
2.22 15661.128811967366
2.25 14911.094354462433
2.28 14163.353337860855
2.3099999999999996 13490.919204922317
2.3399999999999994 12955.740917584084
2.369999999999999 12603.191352689153
2.399999999999999 12458.468983234758
2.429999999999999 12525.164404499395
2.4599999999999986 12786.016822984258
2.4899999999999984 13205.669044171582
2.5199999999999982 13735.047482244388
2.549999999999998 14316.85730662116
2.579999999999998 14891.601778687373
2.6099999999999977 15403.516395082886
2.6399999999999975 15805.844552173727
2.6699999999999973 16064.972568799003
2.699999999999997 16163.073920943378
2.729999999999997 16099.072058517886
2.7599999999999967 15887.90651808995
2.7899999999999965 15558.252911739843
2.8199999999999963 15148.995779637535
2.849999999999996 14704.863949089697
2.879999999999996 14271.704137725697
2.9099999999999957 13891.88117651586
2.9399999999999955 13600.258248759446
2.9699999999999953 13421.128824081856
2.999999999999995 13366.357703781377
3.029999999999995 13434.855111101126
3.0599999999999947 13613.365273525478
3.0899999999999945 13878.424848987082
3.1199999999999943 14199.234212659792
3.149999999999994 14541.108935468434
3.179999999999994 14869.137263959316
3.2099999999999937 15151.669034168426
3.2399999999999936 15363.29604135361
3.2699999999999934 15487.052368205617
3.299999999999993 15515.654664739559
3.329999999999993 15451.707111205555
3.3599999999999928 15306.905802155983
3.3899999999999926 15100.373198716079
3.4199999999999924 14856.337420798605
3.449999999999992 14601.424899579013
3.479999999999992 14361.860290094719
3.509999999999992 14160.860866932562
3.5399999999999916 14016.477041438933
3.5699999999999914 13940.072230476202
3.599999999999991 13935.559667695667
3.629999999999991 13999.430153005405
3.659999999999991 14121.524530860526
3.6899999999999906 14286.430645955577
3.7199999999999904 14475.329572374352
3.7499999999999902 14668.08001267112
3.77999999999999 14845.317502706512
3.80999999999999 14990.355930010144
3.8399999999999896 15090.711411750252
3.8699999999999894 15139.11560076367
3.8999999999999893 15133.94483024369
3.929999999999989 15079.055409466406
3.959999999999989 14983.07492643239
3.9899999999999887 14858.253432429121
4.019999999999989 14719.015542473506
4.049999999999989 14580.37748913852
4.079999999999989 14456.397675361128
4.10999999999999 14358.815449230255
4.13999999999999 14296.005013570764
4.16999999999999 14272.332007579394
4.19999999999999 14287.95372341825
4.229999999999991 14339.057490571438
4.259999999999991 14418.485597603993
4.289999999999991 14516.66162045052
4.319999999999991 14622.704955241168
4.349999999999992 14725.609798308657
4.379999999999992 14815.364732841836
4.409999999999992 14883.903440609542
4.439999999999992 14925.80013075196
4.469999999999993 14938.654688092629
4.499999999999993 14923.147378743273
4.529999999999993 14882.777978739783
4.559999999999993 14823.335482541104
4.589999999999994 14752.168618171225
4.619999999999994 14677.343776348107
4.649999999999994 14606.783083799646
4.679999999999994 14547.471868531567
4.709999999999995 14504.81126183871
4.739999999999995 14482.172446430295
4.769999999999995 14480.685191078877
4.799999999999995 14499.26751747302
4.829999999999996 14534.877690637664
4.859999999999996 14582.948680855508
4.889999999999996 14637.949359140384
4.919999999999996 14694.007648150733
4.949999999999997 14745.52637898454
4.979999999999997 14787.730688312262
5.009999999999997 14817.096862397666
5.039999999999997 14831.626755318093
5.069999999999998 14830.948996444808
5.099999999999998 14816.24873879896
5.129999999999998 14790.044293826424
5.159999999999998 14755.843986926066
5.189999999999999 14717.725150003027
5.219999999999999 14679.88351314865
5.249999999999999 14646.202127220393
5.279999999999999 14619.879471103734
5.31 14603.151868388111
5.34 14597.133592968412
5.37 14601.780787127896
5.4 14615.974731326743
5.430000000000001 14637.708466563543
5.460000000000001 14664.349650979744
5.490000000000001 14692.949287515648
5.520000000000001 14720.560923068666
5.550000000000002 14744.53727826632
5.580000000000002 14762.77440283863
5.610000000000002 14773.886052992795
5.640000000000002 14777.293280045937
5.670000000000003 14773.226907593602
5.700000000000003 14762.646260881344
5.730000000000003 14747.0916706961
5.760000000000003 14728.489280995378
5.790000000000004 14708.931524133055
5.820000000000004 14690.454788690202
5.850000000000004 14674.839492537558
5.880000000000004 14663.450683371744
5.910000000000005 14657.130467923285
5.940000000000005 14656.150898784748
5.970000000000005 14660.228158093525
6.000000000000005 14668.590492156372
6.030000000000006 14680.089263959453
6.060000000000006 14693.33959300644
6.090000000000006 14706.875359887474
6.120000000000006 14719.300798781313
6.150000000000007 14729.423988849361
6.180000000000007 14736.3598251324
6.210000000000007 14739.594321715482
6.240000000000007 14739.008436063204
6.270000000000008 14734.86247070796
6.300000000000008 14727.742894672436
6.330000000000008 14718.480165045245
6.360000000000008 14708.048882778174
6.390000000000009 14697.46162931534
6.420000000000009 14687.666586206995
6.450000000000009 14679.458351015792
6.480000000000009 14673.41140903644
6.51000000000001 14669.839033967297
6.54000000000001 14668.78033110684
6.57000000000001 14670.015057124878
6.60000000000001 14673.103905321641
6.6300000000000106 14677.446083450577
6.660000000000011 14682.347209505722
6.690000000000011 14687.0933604289
6.720000000000011 14691.021634485556
6.7500000000000115 14693.579547643458
6.780000000000012 14694.370642799568
6.810000000000012 14693.180575678478
6.840000000000012 14689.985936061554
6.8700000000000125 14684.944550871314
6.900000000000013 14678.366744160341
6.930000000000013 14670.676586129319
6.960000000000013 14662.363005108757
6.9900000000000135 14653.927141125983
7.020000000000014 14645.833713789534
7.050000000000014 14638.467851239238
7.080000000000014 14632.10368206476
7.1100000000000145 14626.884828192147
7.140000000000015 14622.818175815435
7.170000000000015 14619.782487271106
7.200000000000015 14617.547622185903
7.2300000000000155 14615.800996107042
7.260000000000016 14614.183030422786
7.290000000000016 14612.324531704258
7.320000000000016 14609.881599628921
7.3500000000000165 14606.565751025557
7.380000000000017 14602.16821097967
7.410000000000017 14596.576089866052
7.440000000000017 14589.77899838937
7.4700000000000175 14581.865083577728
7.500000000000018 14573.008504841082
7.530000000000018 14563.448866029623
7.560000000000018 14553.466240948264
7.5900000000000185 14543.352972779376
7.620000000000019 14533.38516007228
7.650000000000019 14523.796787182335
7.680000000000019 14514.75958236597
7.7100000000000195 14506.371178009234
7.74000000000002 14498.649639530693
7.77000000000002 14491.536857799621
7.80000000000002 14484.908663527302
7.8300000000000205 14478.590955601065
7.860000000000021 14472.380161947149
7.890000000000021 14466.065405428511
7.920000000000021 14459.450170939712
7.9500000000000215 14452.37214610764
7.980000000000022 14444.718304999065
8.010000000000021 14436.434963620966
8.04000000000002 14427.531263279228
8.07000000000002 14418.077272052073
8.10000000000002 14408.19504606034
8.130000000000019 14398.044896258787
8.160000000000018 14387.808502064117
8.190000000000017 14377.668474848397
8.220000000000017 14367.790370442794
8.250000000000016 14358.30760942386
8.280000000000015 14349.309829230086
8.310000000000015 14340.836337976742
8.340000000000014 14332.87519328292
8.370000000000013 14325.36709868633
8.400000000000013 14318.213709447667
8.430000000000012 14311.28944697107
8.460000000000012 14304.456124775092
8.49000000000001 14297.579678413987
8.52000000000001 14290.545918632668
8.55000000000001 14283.272438158507
8.580000000000009 14275.717272080954
8.610000000000008 14267.882511065432
8.640000000000008 14259.812985265587
8.670000000000007 14251.59119837234
8.700000000000006 14243.328030254797
8.730000000000006 14235.150133187173
8.760000000000005 14227.185971919627
8.790000000000004 14219.552782042103
8.820000000000004 14212.345009361283
8.850000000000003 14205.625960970914
8.880000000000003 14199.422196097677
8.910000000000002 14193.721588899725
8.940000000000001 14188.475491737263
8.97 14183.605046287355
9.0 14179.011015316606
9.03 14174.58503568015
9.059999999999999 14170.221050768198
9.089999999999998 14165.826471510354
9.119999999999997 14161.331380986583
9.149999999999997 14156.694476396926
9.179999999999996 14151.905514949261
9.209999999999996 14146.984742842731
9.239999999999995 14141.978683942663
9.269999999999994 14136.953578255014
9.299999999999994 14131.988171810644
9.329999999999993 14127.163967309272
9.359999999999992 14122.55675168119
9.389999999999992 14118.229400816828
9.419999999999991 14114.225471321193
9.44999999999999 14110.564323116052
9.47999999999999 14107.239870395068
9.50999999999999 14104.222291166407
9.539999999999988 14101.462715245725
9.569999999999988 14098.90193448086
9.599999999999987 14096.482427647206
9.629999999999987 14094.155305911288
9.659999999999986 14091.882181539011
9.689999999999985 14089.637586703571
9.719999999999985 14087.411522645416
9.749999999999984 14085.212848867972
9.779999999999983 14083.07138437211
9.809999999999983 14081.032999232315
9.839999999999982 14079.152609742465
9.869999999999981 14077.487551014216
9.89999999999998 14076.091913789925
9.92999999999998 14075.013309671505
9.95999999999998 14074.29000043975
9.989999999999979 14073.947703597421
10.019999999999978 12913.66255453828
10.049999999999978 10225.74117468772
10.079999999999977 6427.094480727303
10.109999999999976 2041.5555912097618
10.139999999999976 -2367.3160621241827
10.169999999999975 -6267.249713514314
10.199999999999974 -9220.746473516949
10.229999999999974 -10932.596751211866
10.259999999999973 -11276.442234390917
10.289999999999973 -10298.774440279998
10.319999999999972 -8201.784734212335
10.349999999999971 -5308.690379259529
10.37999999999997 -2016.8988419326654
10.40999999999997 1254.672131479046
10.43999999999997 4117.47304562221
10.469999999999969 6258.176645653729
10.499999999999968 7471.45032863147
10.529999999999967 7677.358550715138
10.559999999999967 6922.220390933738
10.589999999999966 5363.998178830348
10.619999999999965 3245.11799929308
10.649999999999965 857.085665030075
10.679999999999964 -1498.0916642373395
10.709999999999964 -3544.694875576016
10.739999999999963 -5063.982032118647
10.769999999999962 -5915.6287598903455
10.799999999999962 -6048.181340262141
10.829999999999961 -5498.237598113023
10.85999999999996 -4379.429353013351
10.88999999999996 -2863.291875063031
10.919999999999959 -1154.8899592550297
10.949999999999958 533.6066528478614
10.979999999999958 2008.2004970905723
11.009999999999957 3114.3569988871295
11.039999999999957 3752.111711568068
11.069999999999956 3883.6650647929105
11.099999999999955 3533.101851070781
11.129999999999955 2778.8493212484996
11.159999999999954 1740.2961766380856
11.189999999999953 560.626300999382
11.219999999999953 -611.7915288308059
11.249999999999952 -1641.1256226079474
11.279999999999951 -2418.889848271919
11.30999999999995 -2874.329133539875
11.33999999999995 -2979.542492435652
11.36999999999995 -2749.1997843991917
11.399999999999949 -2235.3489154432687
11.429999999999948 -1518.337181767642
11.459999999999948 -695.2351408100941
11.489999999999947 132.68755607032583
11.519999999999946 871.9121179603368
11.549999999999946 1446.7213947676673
11.579999999999945 1806.3588308037906
11.609999999999944 1928.7200390663377
11.639999999999944 1820.4589076772702
11.669999999999943 1513.7937337378603
11.699999999999942 1060.6759686940713
11.729999999999942 525.2117419922008
11.759999999999941 -24.63938183733157
11.78999999999994 -525.0822206962571
11.81999999999994 -923.3303765681649
11.84999999999994 -1182.6028662624767
11.879999999999939 -1284.870054153742
11.909999999999938 -1231.242115098973
11.939999999999937 -1040.160055448413
11.969999999999937 -743.801317041069
11.999999999999936 -383.2612785399841
12.029999999999935 -3.170323523562131
12.059999999999935 353.5965617309985
12.089999999999934 650.5308424865711
12.119999999999933 860.9669620868112
12.149999999999933 970.1343087431995
12.179999999999932 975.7021337776489
12.209999999999932 886.897352130673
12.239999999999931 722.4407097540886
12.26999999999993 507.62328579566207
12.29999999999993 270.94329893996303
12.329999999999929 40.700539025242726
12.359999999999928 -158.0677869135065
12.389999999999928 -306.00714192198006
12.419999999999927 -391.00954067734176
12.449999999999926 -408.8448535294653
12.479999999999926 -362.8723579447203
12.509999999999925 -262.9671811838895
12.539999999999925 -123.84841803865737
12.569999999999924 36.954107064266694
12.599999999999923 201.2278276796695
12.629999999999923 352.06479267849176
12.659999999999922 475.50685527487406
12.689999999999921 561.7178550366958
12.71999999999992 605.6058646530553
12.74999999999992 606.886697523475
12.77999999999992 569.6494787074972
12.809999999999919 501.52294865348273
12.839999999999918 412.54188144664056
12.869999999999918 313.89096131909207
12.899999999999917 216.6555976480466
12.929999999999916 130.70385829845782
12.959999999999916 63.800581232875174
12.989999999999915 21.017016422559532
13.019999999999914 4.466776478119756
13.049999999999914 13.364502101087814
13.079999999999913 44.36388381340848
13.109999999999912 92.11477645465703
13.139999999999912 149.9616841408803
13.169999999999911 210.7077877332846
13.19999999999991 267.3653727909628
13.22999999999991 313.8178163174812
13.25999999999991 345.3457945857618
13.289999999999909 358.97777313217387
13.319999999999908 353.64999467842244
13.349999999999907 330.1791198046532
13.379999999999907 291.05815819973105
13.409999999999906 240.11896453397696
13.439999999999905 182.10183060794296
13.469999999999905 122.1643892685095
13.499999999999904 65.37991317152107
13.529999999999903 16.277518313413587
13.559999999999903 -21.543269302580875
13.589999999999902 -45.69271449339394
13.619999999999902 -55.14265208255107
13.6499999999999 -50.2508444960045
13.6799999999999 -32.65407248111085
13.7099999999999 -5.04972721311121
13.739999999999899 29.105832193881884
13.769999999999898 65.95633423932448
13.799999999999898 101.6275312199734
13.829999999999897 132.5982401380458
13.859999999999896 156.02300622354008
13.889999999999896 169.96568231307535
13.919999999999895 173.5451072490756
13.949999999999894 166.97322602962618
13.979999999999894 151.48232361577251
14.009999999999893 129.15319664672978
14.039999999999893 102.67177117692479
14.069999999999892 75.02728220923058
14.099999999999891 49.18537748506629
14.12999999999989 27.77045519620599
14.15999999999989 12.789888752764584
14.18999999999989 5.424207110308515
14.219999999999889 5.9127721848158
14.249999999999888 13.560792471954663
14.279999999999887 26.832025826914688
14.309999999999887 43.53519968751058
14.339999999999886 61.08498041595576
14.369999999999886 76.76950436758
14.399999999999885 88.02785005834112
14.429999999999884 92.72569900460516
14.459999999999884 89.38017064093457
14.489999999999883 77.30233603420753
14.519999999999882 56.65500907157002
14.549999999999882 28.417374983614156
14.579999999999881 -5.746320151355632
14.60999999999988 -43.6856460519684
14.63999999999988 -82.99778903291957
14.66999999999988 -121.27454622756139
14.699999999999878 -156.34916575454773
14.729999999999878 -186.48925689174465
14.759999999999877 -210.5200478152972
14.789999999999877 -227.8854076373735
14.819999999999876 -238.64069102265884
14.849999999999875 -243.3978658908385
14.879999999999875 -243.21491378274519
14.909999999999874 -239.44258647945747
14.939999999999873 -233.5745017805928
14.969999999999873 -227.11684559028402
14.999999999999872 -221.47606095331338
15.029999999999871 -217.84242764682966
15.05999999999987 -217.06982515792106
15.08999999999987 -219.6601095674945
15.11999999999987 -225.72442212003924
15.149999999999869 -235.0272811953784
15.179999999999868 -247.1228526916498
15.209999999999868 -261.543099700576
15.239999999999867 -277.99287037065926
15.269999999999866 -296.4906867223518
15.299999999999866 -317.4592897986466
15.329999999999865 -341.7306416076627
15.359999999999864 -370.44455872077225
15.389999999999864 -404.78366342136997
15.419999999999863 -445.6786120793117
15.449999999999863 -493.4842950869926
15.479999999999862 -547.7258079096683
15.509999999999861 -607.1622436719825
15.53999999999986 -669.7250040172951
15.56999999999986 -733.2557749094858
15.59999999999986 -795.9638014811056
15.629999999999859 -856.3881913996734
15.659999999999858 -913.1665107314434
15.689999999999857 -964.8753739366543
15.719999999999857 -1010.0422538573513
15.749999999999856 -1047.4041650174793
15.779999999999855 -1076.0843371145747
15.809999999999855 -1095.6451480491655
15.839999999999854 -1106.2045077570042
15.869999999999854 -1108.6260020350744
15.899999999999853 -1104.477097550592
15.929999999999852 -1095.804894052089
15.959999999999852 -1084.8987902689025
15.989999999999851 -1074.0099219930235
16.01999999999985 -1065.2562614671906
16.04999999999985 -1060.446634343403
16.079999999999853 -1060.9004506158506
16.109999999999854 -1067.41724449524
16.139999999999855 -1080.3128770077467
16.169999999999856 -1099.4821424244067
16.199999999999857 -1124.4631475425863
