# Results for "element" with Id # 45628 for search config "initial" at position: x0: 31.3; y0: 0; z0: 131.578842105
# time PRESSURE
0.03 1322.9127193084714
0.06 3783.182757305053
0.09 7105.433470995318
0.12 10950.125944921825
0.15 14945.746109618907
0.18 18723.047513088102
0.21 21947.90405373862
0.24 24349.895609984076
0.27 25744.272343262423
0.30000000000000004 26045.55167882008
0.33000000000000007 25271.723154080264
0.3600000000000001 23538.86542905293
0.3900000000000001 21046.859649964572
0.42000000000000015 18057.72434477641
0.4500000000000002 14868.819811508005
0.4800000000000002 11783.656851421678
0.5100000000000002 9083.235426440831
0.5400000000000003 7000.698137136081
0.5700000000000003 5701.629930286178
0.6000000000000003 5271.646370684812
0.6300000000000003 5712.077153551777
0.6600000000000004 6943.701017645749
0.6900000000000004 8817.725319234065
0.7200000000000004 11132.591156624921
0.7500000000000004 13654.772594096998
0.7800000000000005 16141.526754900788
0.8100000000000005 18363.516416235238
0.8400000000000005 20125.342622688848
0.8700000000000006 21282.26694829878
0.9000000000000006 21751.750373253188
0.9300000000000006 21518.890352170918
0.9600000000000006 20635.379683786574
0.9900000000000007 19212.19956005509
1.0200000000000007 17406.877961353148
1.0500000000000007 15406.681232553403
1.0800000000000007 13409.515366717309
1.1100000000000008 11604.51740309354
1.1400000000000008 10154.29057140463
1.1700000000000008 9180.484388430872
1.2000000000000008 8753.990801147183
1.2300000000000009 8890.483547230217
1.260000000000001 9551.447397179458
1.290000000000001 10650.314000743438
1.320000000000001 12062.850489915834
1.350000000000001 13640.619442955174
1.380000000000001 15226.1137662276
1.410000000000001 16668.092228385347
1.440000000000001 17835.685865191303
1.470000000000001 18630.006866697695
1.500000000000001 18992.255815801283
1.5300000000000011 18907.67470976485
1.5600000000000012 18405.104802919734
1.5900000000000012 17552.336725307465
1.6200000000000012 16447.858516794095
1.6500000000000012 15209.947433311325
1.6800000000000013 13964.29436985046
1.7100000000000013 12831.453898790189
1.7400000000000013 11915.375420707525
1.7700000000000014 11294.100589438665
1.8000000000000014 11013.43711328105
1.8300000000000014 11084.076105744847
1.8600000000000014 11482.253755533051
1.8900000000000015 12153.710880077573
1.9200000000000015 13020.39854597271
1.9500000000000015 13989.153216869596
1.9800000000000015 14961.417119952775
2.0100000000000016 15843.027356705365
2.0400000000000014 16553.133600776953
2.070000000000001 17031.424510150802
2.100000000000001 17243.034174888264
2.130000000000001 17180.747411942575
2.1600000000000006 16864.39930144638
2.1900000000000004 16337.646542863751
2.22 15662.543906722336
2.25 14912.562861128154
2.28 14164.820942225553
2.3099999999999996 13492.333584842705
2.3399999999999994 12957.058957164378
2.369999999999999 12604.384945666085
2.399999999999999 12459.528438384912
2.429999999999999 12526.099172355505
2.4599999999999986 12786.85342515401
2.4899999999999984 13206.446709197016
2.5199999999999982 13735.812283210564
2.549999999999998 14317.655529067668
2.579999999999998 14892.47374457189
2.6099999999999977 15404.491441103402
2.6399999999999975 15806.937909081655
2.6699999999999973 16066.184448121152
2.699999999999997 16164.390733462624
2.729999999999997 16100.46948810525
2.7599999999999967 15889.353824528267
2.7899999999999965 15559.71767901889
2.8199999999999963 15150.448335316194
2.849999999999996 14706.281009658029
2.879999999999996 14273.07109533577
2.9099999999999957 13893.193015860945
2.9399999999999955 13601.519094245861
2.9699999999999953 13422.350401238751
2.999999999999995 13367.557123921866
3.029999999999995 13436.052330191911
3.0599999999999947 13614.58061398057
3.0899999999999945 13879.676883746142
3.1199999999999943 14200.53821179748
3.149999999999994 14542.47580353103
3.179999999999994 14870.573092501947
3.2099999999999937 15153.175081708348
3.2399999999999936 15364.86911275547
3.2699999999999934 15488.685493237825
3.299999999999993 15517.33798451522
3.329999999999993 15453.428944799407
3.3599999999999928 15308.653800917515
3.3899999999999926 15102.135522120685
3.4199999999999924 14858.103834319976
3.449999999999992 14603.187769795086
3.479999999999992 14363.615305186628
3.509999999999992 14162.607398619675
3.5399999999999916 14018.218147206957
3.5699999999999914 13941.814266127607
3.599999999999991 13937.311523634311
3.629999999999991 14001.202212194097
3.659999999999991 14123.327421498338
3.6899999999999906 14288.274005328867
3.7199999999999904 14477.22094834691
3.7499999999999902 14670.023966910505
3.77999999999999 14847.315079706043
3.80999999999999 14992.404585248725
3.8399999999999896 15092.805317382836
3.8699999999999894 15141.246326681523
3.8999999999999893 15136.1023236343
3.929999999999989 15081.229184671336
3.959999999999989 14985.255305597857
3.9899999999999887 14860.432635604258
4.019999999999989 14721.188410657689
4.049999999999989 14582.541833797379
4.079999999999989 14458.554280302647
4.10999999999999 14360.967748990368
4.13999999999999 14298.158453048105
4.16999999999999 14274.493181770942
4.19999999999999 14290.129482016799
4.229999999999991 14341.254057487304
4.259999999999991 14420.707871708199
4.289999999999991 14518.912659306454
4.319999999999991 14624.985748928657
4.349999999999992 14727.919250021643
4.379999999999992 14817.699982058146
4.409999999999992 14886.260350900084
4.439999999999992 14928.173817514762
4.469999999999993 14941.040048137356
4.499999999999993 14925.539595157545
4.529999999999993 14885.172966548756
4.559999999999993 14825.7302648046
4.589999999999994 14754.561628437363
4.619999999999994 14679.735069069804
4.649999999999994 14609.174314115553
4.679999999999994 14549.866059509151
4.709999999999995 14507.212420400572
4.739999999999995 14484.585111042263
4.769999999999995 14483.113966687879
4.799999999999995 14501.716635635616
4.829999999999996 14537.35073950123
4.859999999999996 14585.448426105062
4.889999999999996 14640.477457962863
4.919999999999996 14696.564377554643
4.949999999999997 14748.110832594559
4.979999999999997 14790.341311664242
5.009999999999997 14819.731849790218
5.039999999999997 14834.284467984855
5.069999999999998 14833.628310680213
5.099999999999998 14818.94936046518
5.129999999999998 14792.766968974265
5.159999999999998 14758.590547167501
5.189999999999999 14720.49859969715
5.219999999999999 14682.688118650369
5.249999999999999 14649.043218158029
5.279999999999999 14622.763095278448
5.31 14606.084468968567
5.34 14600.121337997765
5.37 14604.828646722264
5.4 14619.085596852045
5.430000000000001 14640.882689840122
5.460000000000001 14667.585158576718
5.490000000000001 14696.241802411327
5.520000000000001 14723.904521110831
5.550000000000002 14747.925137962173
5.580000000000002 14766.199989018682
5.610000000000002 14777.344007638945
5.640000000000002 14780.779997488997
5.670000000000003 14776.740708004221
5.700000000000003 14766.18760096811
5.730000000000003 14750.662949262565
5.760000000000003 14732.094226161023
5.790000000000004 14712.574331365877
5.820000000000004 14694.139724290962
5.850000000000004 14678.570375884112
5.880000000000004 14667.230292386615
5.910000000000005 14660.960208921966
5.940000000000005 14660.030698017394
5.970000000000005 14664.156322785591
6.000000000000005 14672.563881305638
6.030000000000006 14684.103837131159
6.060000000000006 14697.391097841459
6.090000000000006 14710.960026573532
6.120000000000006 14723.415820123926
6.150000000000007 14733.567874385159
6.180000000000007 14740.53271151633
6.210000000000007 14743.798242360006
6.240000000000007 14743.247480695487
6.270000000000008 14739.142331410641
6.300000000000008 14732.070146597243
6.330000000000008 14722.861791675532
6.360000000000008 14712.492102434475
6.390000000000009 14701.973790964033
6.420000000000009 14692.255215663698
6.450000000000009 14684.131042342085
6.480000000000009 14678.17558665029
6.51000000000001 14674.701900409305
6.54000000000001 14673.74896172383
6.57000000000001 14675.096453810298
6.60000000000001 14678.30456228934
6.6300000000000106 14682.771534015412
6.660000000000011 14687.802084180188
6.690000000000011 14692.68118931266
6.720000000000011 14696.744099210136
6.7500000000000115 14699.436161443222
6.780000000000012 14700.358509188305
6.810000000000012 14699.294542149873
6.840000000000012 14696.218781199756
6.8700000000000125 14691.286981339696
6.900000000000013 14684.808401247925
6.930000000000013 14677.206772663969
6.960000000000013 14668.971388747075
6.9900000000000135 14660.604935157502
7.020000000000014 14652.57474838545
7.050000000000014 14645.269669063053
7.080000000000014 14638.968183536135
7.1100000000000145 14633.81854730059
7.140000000000015 14629.832493524624
7.170000000000015 14626.893245402302
7.200000000000015 14624.774506095899
7.2300000000000155 14623.167300581677
7.260000000000016 14621.714956975795
7.290000000000016 14620.050165076675
7.320000000000016 14617.830098269435
7.3500000000000165 14614.767102357157
7.380000000000017 14610.653374916847
7.410000000000017 14605.377071838218
7.440000000000017 14598.928860276286
7.4700000000000175 14591.397842755334
7.500000000000018 14582.958782584219
7.530000000000018 14573.851573965958
7.560000000000018 14564.356027303265
7.5900000000000185 14554.76361909732
7.620000000000019 14545.349127717074
7.650000000000019 14536.345030187294
7.680000000000019 14527.921455519003
7.7100000000000195 14520.173797338573
7.74000000000002 14513.117059795184
7.77000000000002 14506.688974790215
7.80000000000002 14500.759831013358
7.8300000000000205 14495.148752416833
7.860000000000021 14489.644204901775
7.890000000000021 14484.026457606873
7.920000000000021 14478.089817399823
7.9500000000000215 14471.663100422129
7.980000000000022 14464.625264448738
8.010000000000021 14456.915710615023
8.04000000000002 14448.53796634736
8.07000000000002 14439.55754268708
8.10000000000002 14430.093149952867
8.130000000000019 14420.302967233507
8.160000000000018 14410.367611741325
8.190000000000017 14400.470141486747
8.220000000000017 14390.777486888313
8.250000000000016 14381.424755433985
8.280000000000015 14372.503058501612
8.310000000000015 14364.052709451507
8.340000000000014 14356.062214551752
8.370000000000013 14348.472407086621
8.400000000000013 14341.185030957338
8.430000000000012 14334.074979037297
8.460000000000012 14327.00509673323
8.49000000000001 14319.842526532737
8.52000000000001 14312.474092730869
8.55000000000001 14304.818500640811
8.580000000000009 14296.835359854607
8.610000000000008 14288.52945810024
8.640000000000008 14279.949908940147
8.670000000000007 14271.185149934785
8.700000000000006 14262.353319179845
8.730000000000006 14253.589596734095
8.760000000000005 14245.031941797279
8.790000000000004 14236.807691528464
8.820000000000004 14229.02187778968
8.850000000000003 14221.74878706216
8.880000000000003 14215.026321820367
8.910000000000002 14208.85370521772
8.940000000000001 14203.19327510282
8.97 14197.976379675036
9.0 14193.113066125603
9.03 14188.503490569366
9.059999999999999 14184.04936883265
9.089999999999998 14179.66505018266
9.119999999999997 14175.286459713769
9.149999999999997 14170.877239269728
9.179999999999996 14166.431635598747
9.209999999999996 14161.974192821135
9.239999999999995 14157.555790209324
9.269999999999994 14153.246770782436
9.299999999999994 14149.129479127478
9.329999999999993 14145.288537102944
9.359999999999992 14141.802094287921
9.389999999999992 14138.73430520872
9.419999999999991 14136.128833508104
9.44999999999999 14134.004059842351
9.47999999999999 14132.35200258117
9.50999999999999 14131.14001954749
9.539999999999988 14130.315353367076
9.569999999999988 14129.813342749343
9.599999999999987 14129.568338544028
9.629999999999987 14129.521219436854
9.659999999999986 14129.622711322045
9.689999999999985 14129.83658416152
9.719999999999985 14130.142922935738
9.749999999999984 14130.541403112295
9.779999999999983 14131.052703179976
9.809999999999983 14131.713481523631
9.839999999999982 14132.569636708162
9.869999999999981 14133.669655195554
9.89999999999998 14135.05902810191
9.92999999999998 14136.776474948509
9.95999999999998 14138.849734119849
9.989999999999979 14141.291678355201
10.019999999999978 12983.664224556363
10.049999999999978 10298.26040185899
10.079999999999977 6502.032284420055
10.109999999999976 2118.8074168707385
10.139999999999976 -2287.8936907872194
10.169999999999975 -6185.831301466286
10.199999999999974 -9137.494240077735
10.229999999999974 -10847.615183615655
10.259999999999973 -11189.766432507888
10.289999999999973 -10210.408740236344
10.319999999999972 -8111.775675081487
10.349999999999971 -5217.198140324171
10.37999999999997 -1924.2302601092354
10.40999999999997 1348.0889620145965
10.43999999999997 4211.163556209127
10.469999999999969 6351.711333941854
10.499999999999968 7564.511793407388
10.529999999999967 7769.754976844954
10.559999999999967 7013.840697809446
10.589999999999966 5454.72936133325
10.619999999999965 3334.762502823848
10.649999999999965 945.3170343050729
10.679999999999964 -1411.713361108111
10.709999999999964 -3460.6505248954913
10.739999999999963 -4982.691500762913
10.769999999999962 -5837.35802442305
10.799999999999962 -5972.994337845504
10.829999999999961 -5426.011727288501
10.85999999999996 -4309.928967563415
10.88999999999996 -2796.2728344910524
10.919999999999959 -1090.1986950307748
10.949999999999958 595.9705475659655
10.979999999999958 2068.0738827547893
11.009999999999957 3171.450517941608
11.039999999999957 3806.075588462837
11.069999999999956 3934.1569993395906
11.099999999999955 3579.835209137539
11.129999999999955 2821.610852194472
11.159999999999954 1778.9351616319236
11.189999999999953 595.0277133386456
11.219999999999953 -581.7337523982019
11.249999999999952 -1615.5230814256602
11.279999999999951 -2397.856369332027
11.30999999999995 -2857.9632910770383
11.33999999999995 -2967.903895645232
11.36999999999995 -2742.288298837926
11.399999999999949 -2233.093613419256
11.429999999999948 -1520.5964498999942
11.459999999999948 -701.8050111999187
11.489999999999947 122.06191288478377
11.519999999999946 857.5268100533438
11.549999999999946 1428.9086226585598
11.579999999999945 1785.4860380322484
11.609999999999944 1905.1905667843505
11.639999999999944 1794.7104475191377
11.669999999999943 1486.2922540894647
11.699999999999942 1031.9037114993241
11.729999999999942 495.6504087233766
11.759999999999941 -54.52799290868417
11.78999999999994 -554.874404113892
11.81999999999994 -952.655369380427
11.84999999999994 -1211.1528806350088
11.879999999999939 -1312.4051406331341
11.909999999999938 -1257.5900732657644
11.939999999999937 -1065.2123932570307
11.969999999999937 -767.5062061273198
11.999999999999936 -405.6147991774016
12.029999999999935 -24.206650361454972
12.059999999999935 333.8149496405455
12.089999999999934 631.9204885551782
12.119999999999933 843.4266802672154
12.149999999999933 953.5444143553498
12.179999999999932 959.9187120617263
12.209999999999932 871.7404411781106
12.239999999999931 707.6770589931365
12.26999999999993 492.94644819690427
12.29999999999993 255.95053258186286
12.329999999999929 24.87118512903758
12.359999999999928 -175.38666336036036
12.389999999999928 -325.605299685121
12.419999999999927 -413.8098782892132
12.449999999999926 -435.89234507232834
12.479999999999926 -395.3149432207261
12.509999999999925 -302.0314155718552
12.539999999999925 -170.8104426674698
12.569999999999924 -19.197138598582402
12.599999999999923 134.61840728213025
12.629999999999923 273.7905722575951
12.659999999999922 384.4623073434157
12.689999999999921 456.93448140182846
12.71999999999992 486.2849093556468
12.74999999999992 472.42809369400874
12.77999999999992 419.674875814711
12.809999999999919 335.89160078133324
12.839999999999918 231.36368870564291
12.869999999999918 117.5322794170328
12.899999999999917 5.73887872233388
12.929999999999916 -93.89831258165708
12.959999999999916 -173.37794268150333
12.989999999999915 -227.41355383598236
13.019999999999914 -253.70808224140475
13.049999999999914 -252.90876213640124
13.079999999999913 -228.2813695489744
13.109999999999912 -185.16279819792598
13.139999999999912 -130.26842571417876
13.169999999999911 -70.92636360628276
13.19999999999991 -14.318241781008538
13.22999999999991 33.193641336209765
13.25999999999991 66.60740799230099
13.289999999999909 82.64931968935244
13.319999999999908 79.95266381741803
13.349999999999907 59.04896962984845
13.379999999999907 22.179667695817404
13.409999999999906 -27.027518180150018
13.439999999999905 -83.97768739408508
13.469999999999905 -143.59713729313657
13.499999999999904 -200.84044577602944
13.529999999999903 -251.1574827563718
13.559999999999903 -290.88843532474885
13.589999999999902 -317.5551658290001
13.619999999999902 -330.02722064717716
13.6499999999999 -328.5589637465395
13.6799999999999 -314.6947315719357
13.7099999999999 -291.0619337135595
13.739999999999899 -261.079606168475
13.769999999999898 -228.60882915592805
13.799999999999898 -197.57361983769323
13.829999999999897 -171.58389012225098
13.859999999999896 -153.60900349651504
13.889999999999896 -145.74785062107136
13.919999999999895 -149.06776812466046
13.949999999999894 -163.52660584849608
13.979999999999894 -188.02174452359702
14.009999999999893 -220.54950590502054
14.039999999999893 -258.43295678152066
14.069999999999892 -298.5993363074991
14.099999999999891 -337.8990409959809
14.12999999999989 -373.42345388740085
14.15999999999989 -402.81324766891305
14.18999999999989 -424.51144075256065
14.219999999999889 -437.8934687099381
14.249999999999888 -443.3027774147985
14.279999999999887 -441.98690572639305
14.309999999999887 -435.9339248373758
14.339999999999886 -427.5565166931985
14.369999999999886 -419.48799853346685
14.399999999999885 -414.33369148242514
14.429999999999884 -414.3673774107897
14.459999999999884 -421.26848491115527
14.489999999999883 -435.96532433761627
14.519999999999882 -458.555480767624
14.549999999999882 -488.326758771747
14.579999999999881 -523.8870886187684
14.60999999999988 -563.3629030460354
14.63999999999988 -604.6379315559402
14.66999999999988 -645.6431715171016
14.699999999999878 -684.6322091884341
14.729999999999878 -720.4244458342296
14.759999999999877 -752.5575623382764
14.789999999999877 -781.3326056806776
14.819999999999876 -807.7337275852377
14.849999999999875 -833.355712409817
14.879999999999875 -860.2980166022672
14.909999999999874 -890.9935157507434
14.939999999999873 -927.9392063159625
14.969999999999873 -973.3331133537278
14.999999999999872 -1028.7662825179448
15.029999999999871 -1094.870381879719
15.05999999999987 -1170.9220762579232
15.08999999999987 -1254.922001487255
15.11999999999987 -1343.6441114036086
15.149999999999869 -1432.7977349828939
15.179999999999868 -1517.474972524046
15.209999999999868 -1592.741754428275
15.239999999999867 -1654.1353104847615
15.269999999999866 -1697.9214419749326
15.299999999999866 -1721.5082724257086
15.329999999999865 -1723.8815924526186
15.359999999999864 -1705.9786690190572
15.389999999999864 -1670.5121556923125
15.419999999999863 -1621.5553034365041
15.449999999999863 -1564.1170154315216
15.479999999999862 -1502.9516198967137
15.509999999999861 -1442.0494356086986
15.53999999999986 -1386.0205458031976
15.56999999999986 -1338.3629454892357
15.59999999999986 -1300.6539741272447
15.629999999999859 -1273.1604129589696
15.659999999999858 -1255.5825700806413
15.689999999999857 -1247.4492607518603
15.719999999999857 -1248.2011605728787
15.749999999999856 -1256.8994126882433
15.779999999999855 -1272.0882174633757
15.809999999999855 -1291.978649069518
15.839999999999854 -1314.5868694327194
15.869999999999854 -1337.862448622532
15.899999999999853 -1359.9750196706516
15.929999999999852 -1379.5448214752826
15.959999999999852 -1395.7704710889927
15.989999999999851 -1408.4404212035008
16.01999999999985 -1417.7972734065677
16.04999999999985 -1424.319795096423
16.079999999999853 -1428.5507673739257
16.109999999999854 -1430.9844470974815
16.139999999999855 -1432.012416923235
