# Results for "element" with Id # 24396 for search config "initial" at position: x0: 31.3; y0: 0; z0: 236.841915789
# time PRESSURE
0.03 1327.6801986183807
0.06 3796.8415065369686
0.09 7131.1906147973195
0.12 10990.059470886106
0.15 15000.638799383787
0.18 18792.273291879497
0.21 22029.401005525495
0.24 24440.276663756144
0.27 25839.116270095623
0.30000000000000004 26139.880248090405
0.33000000000000007 25360.619667754778
0.3600000000000001 23618.139226466894
0.3900000000000001 21113.631707955166
0.42000000000000015 18110.819235863233
0.4500000000000002 14908.887665320017
0.4800000000000002 11813.009900885167
0.5100000000000002 9105.443764996799
0.5400000000000003 7020.0311034627175
0.5700000000000003 5722.446443698245
0.6000000000000003 5297.824485543626
0.6300000000000003 5746.552113383373
0.6600000000000004 6988.152511988467
0.6900000000000004 8872.432461278577
0.7200000000000004 11196.459114423189
0.7500000000000004 13725.525288394085
0.7800000000000005 16216.048083588463
0.8100000000000005 18438.305053277043
0.8400000000000005 20197.024009835983
0.8700000000000006 21348.085728291368
0.9000000000000006 21809.963103157705
0.9300000000000006 21568.987994651616
0.9600000000000006 20678.097985879398
0.9900000000000007 19249.325589993143
1.0200000000000007 17440.89301907789
1.0500000000000007 15440.316830186292
1.0800000000000007 13445.30629166997
1.1100000000000008 11644.427669913102
1.1400000000000008 10199.464934670308
1.1700000000000008 9231.150491925251
1.2000000000000008 8809.507387572372
1.2300000000000009 8949.511510916562
1.260000000000001 9612.207658123476
1.290000000000001 10710.886630386205
1.320000000000001 12121.471955695064
1.350000000000001 13695.936062197581
1.380000000000001 15277.358094734529
1.410000000000001 16715.160273694917
1.440000000000001 17879.10799480322
1.470000000000001 18670.82079702536
1.500000000000001 19031.807215318124
1.5300000000000011 18947.380031598954
1.5600000000000012 18446.217684435727
1.5900000000000012 17595.754546798573
1.6200000000000012 16493.999652532737
1.6500000000000012 15258.713890213468
1.6800000000000013 14015.120393592199
1.7100000000000013 12883.426001597381
1.7400000000000013 11967.398976585959
1.7700000000000014 11345.083293262174
1.8000000000000014 11062.458350652198
1.8300000000000014 11130.518057333466
1.8600000000000014 11525.877210420413
1.8900000000000015 12194.669297217908
1.9200000000000015 13059.193005406058
1.9500000000000015 14026.538814635114
1.9800000000000015 14998.276858799682
2.0100000000000016 15880.233349035936
2.0400000000000014 16591.4158756495
2.070000000000001 17071.265462146934
2.100000000000001 17284.603875024724
2.130000000000001 17223.887397534767
2.1600000000000006 16908.65683691291
2.1900000000000004 16382.351777279817
2.22 15706.917664416465
2.25 14955.83741715286
2.28 14206.353975747357
2.3099999999999996 13531.698291270724
2.3399999999999994 12994.096697550294
2.369999999999999 12639.214343305064
2.399999999999999 12492.511171138316
2.429999999999999 12557.770832474813
2.4599999999999986 12817.831905314275
2.4899999999999984 13237.33486168575
2.5199999999999982 13767.109478406337
2.549999999999998 14349.691383836464
2.579999999999998 14925.372738978318
2.6099999999999977 15438.17094657548
2.6399999999999975 15841.137247998315
2.6699999999999973 16100.517680949895
2.699999999999997 16198.41255476701
2.729999999999997 16133.743301976745
2.7599999999999967 15921.51108843718
2.7899999999999965 15590.499971160252
2.8199999999999963 15179.728573075814
2.849999999999996 14734.063020819096
2.879999999999996 14299.47051710606
2.9099999999999957 13918.405548683771
2.9399999999999955 13625.782764777003
2.9699999999999953 13445.908517276051
2.999999999999995 13390.627416566034
3.029999999999995 13458.8049546388
3.0599999999999947 13637.12684051984
3.0899999999999945 13902.067584762834
3.1199999999999943 14222.769337464442
3.149999999999994 14564.498399144135
3.179999999999994 14892.305421748346
3.2099999999999937 15174.514407411454
3.2399999999999936 15385.701908148847
3.2699999999999934 15508.895934266535
3.299999999999993 15536.815076910365
3.329999999999993 15472.07316230821
3.3599999999999928 15326.382963040483
3.3899999999999926 15118.890261577848
3.4199999999999924 14873.85266931924
3.449999999999992 14617.930649641838
3.479999999999992 14377.384717095152
3.509999999999992 14175.466242167044
3.5399999999999916 14030.254337790502
3.5699999999999914 13953.132228409371
3.599999999999991 13948.021152837839
3.629999999999991 14011.406961372384
3.659999999999991 14133.112626530336
3.6899999999999906 14297.697323517796
3.7199999999999904 14486.305794490121
3.7499999999999902 14678.756989906671
3.77999999999999 14855.647961952078
3.80999999999999 15000.260137380235
3.8399999999999896 15100.086743344069
3.8699999999999894 15147.848579181484
3.8999999999999893 15141.924420568785
3.929999999999989 15086.185705138718
3.959999999999989 14989.286074116706
3.9899999999999887 14863.50889980595
4.019999999999989 14723.315226866856
4.049999999999989 14583.756408602314
4.079999999999989 14458.920257641355
4.10999999999999 14360.566371785193
4.13999999999999 14297.077900109176
4.16999999999999 14272.817322380106
4.19999999999999 14287.92759961336
4.229999999999991 14338.572239292233
4.259999999999991 14417.563859273052
4.289999999999991 14515.293926081771
4.319999999999991 14620.851341925438
4.349999999999992 14723.2049425198
4.379999999999992 14812.325956238621
4.409999999999992 14880.140265100956
4.439999999999992 14921.224152596555
4.469999999999993 14933.188557774698
4.499999999999993 14916.73193636669
4.529999999999993 14875.376897621065
4.559999999999993 14814.936702622263
4.589999999999994 14742.782973181447
4.619999999999994 14667.00119638111
4.649999999999994 14595.526932016408
4.679999999999994 14535.351841814458
4.709999999999995 14491.875767632298
4.739999999999995 14468.461580744863
4.769999999999995 14466.225122541258
4.799999999999995 14484.066545899668
4.829999999999996 14518.924593000174
4.859999999999996 14566.213360834037
4.889999999999996 14620.385421964713
4.919999999999996 14675.55592597901
4.949999999999997 14726.120148552074
4.979999999999997 14767.302197170484
5.009999999999997 14795.58358097132
5.039999999999997 14808.976079894846
5.069999999999998 14807.121401667215
5.099999999999998 14791.219123440742
5.129999999999998 14763.801297161064
5.159999999999998 14728.38726302996
5.189999999999999 14689.061455926785
5.219999999999999 14650.022264779887
5.249999999999999 14615.149908015086
5.279999999999999 14587.635624036326
5.31 14569.70560569715
5.34 14562.461617415525
5.37 14565.846231091047
5.4 14578.72782900305
5.430000000000001 14599.088330858216
5.460000000000001 14624.287551434703
5.490000000000001 14651.37207860784
5.520000000000001 14677.394527466902
5.550000000000002 14699.709867064781
5.580000000000002 14716.220398129723
5.610000000000002 14725.548449563612
5.640000000000002 14727.124288963683
5.670000000000003 14721.186559552154
5.700000000000003 14708.701299978065
5.730000000000003 14691.21370094055
5.760000000000003 14670.652064990307
5.790000000000004 14649.107471484067
5.820000000000004 14628.612714058132
5.850000000000004 14610.942946087165
5.880000000000004 14597.456520162381
5.910000000000005 14588.988975668608
5.940000000000005 14585.806910860749
5.970000000000005 14587.622330653463
6.000000000000005 14593.6611559413
6.030000000000006 14602.775286552249
6.060000000000006 14613.583719381764
6.090000000000006 14624.626675870266
6.120000000000006 14634.516339400787
6.150000000000007 14642.06947490507
6.180000000000007 14646.410053294063
6.210000000000007 14647.033907837374
6.240000000000007 14643.831916763078
6.270000000000008 14637.072550567036
6.300000000000008 14627.348334419652
6.330000000000008 14615.494321746843
6.360000000000008 14602.488794118803
6.390000000000009 14589.347168817108
6.420000000000009 14577.020034620673
6.450000000000009 14566.304900881858
6.480000000000009 14557.779497510805
6.51000000000001 14551.76124386845
6.54000000000001 14548.295208105925
6.57000000000001 14547.169145406559
6.60000000000001 14547.952362295835
6.6300000000000106 14550.052937759103
6.660000000000011 14552.786452119548
6.690000000000011 14555.448975184718
6.720000000000011 14557.386447170866
6.7500000000000115 14558.054570512473
6.780000000000012 14557.063955056312
6.810000000000012 14554.207170448983
6.840000000000012 14549.466571231334
6.8700000000000125 14543.003426987194
6.900000000000013 14535.130651575964
6.930000000000013 14526.272894722773
6.960000000000013 14516.918693322661
6.9900000000000135 14507.569623860345
7.020000000000014 14498.692012191457
7.050000000000014 14490.67472259751
7.080000000000014 14483.797015867336
7.1100000000000145 14478.208826726428
7.140000000000015 14473.92428059189
7.170000000000015 14470.82866909001
7.200000000000015 14468.69741601733
7.2300000000000155 14467.223904856108
7.260000000000016 14466.053605640838
7.290000000000016 14464.820587871192
7.320000000000016 14463.18294105428
7.3500000000000165 14460.854172657771
7.380000000000017 14457.6277448451
7.410000000000017 14453.392375311214
7.440000000000017 14448.13812778484
7.4700000000000175 14441.952246284496
7.500000000000018 14435.006027761467
7.530000000000018 14427.534092929838
7.560000000000018 14419.808977296894
7.5900000000000185 14412.113485012307
7.620000000000019 14404.7127979942
7.650000000000019 14397.82940517435
7.680000000000019 14391.624399219067
7.7100000000000195 14386.184064638936
7.74000000000002 14381.514605710528
7.77000000000002 14377.54531301896
7.80000000000002 14374.13848789029
7.8300000000000205 14371.106333363721
7.860000000000021 14368.231667262762
7.890000000000021 14365.290786943613
7.920000000000021 14362.076163946078
7.9500000000000215 14358.41703665899
7.980000000000022 14354.19505496767
8.010000000000021 14349.354296764684
8.04000000000002 14343.904931695353
8.07000000000002 14337.9200929289
8.10000000000002 14331.525926561253
8.130000000000019 14324.886974850619
8.160000000000018 14318.188546515205
8.190000000000017 14311.617399910016
8.220000000000017 14305.342907228227
8.250000000000016 14299.501028033508
8.280000000000015 14294.182198043243
8.310000000000015 14289.423857344867
8.340000000000014 14285.208463874353
8.370000000000013 14281.46731767129
8.400000000000013 14278.089115076733
8.430000000000012 14274.932628102773
8.460000000000012 14271.842782993426
8.49000000000001 14268.667107611544
8.52000000000001 14265.271661034501
8.55000000000001 14261.554008617708
8.580000000000009 14257.452488821646
8.610000000000008 14252.950301620675
8.640000000000008 14248.077621287557
8.670000000000007 14242.904794319267
8.700000000000006 14237.533963920281
8.730000000000006 14232.088073025247
8.760000000000005 14226.697775353921
8.790000000000004 14221.487861588254
8.820000000000004 14216.564231743976
8.850000000000003 14212.004039745738
8.880000000000003 14207.84990996493
8.910000000000002 14204.108333508286
8.940000000000001 14200.751965902802
8.97 14197.725560189785
9.0 14194.954978973718
9.03 14192.357546658337
9.059999999999999 14189.852392434263
9.089999999999998 14187.369813668172
9.119999999999997 14184.859255785821
9.149999999999997 14182.295597674056
9.179999999999996 14179.681933991993
9.209999999999996 14177.048176684391
9.239999999999995 14174.447033215245
9.269999999999994 14171.946723535679
9.299999999999994 14169.623160909912
9.329999999999993 14167.550331958448
9.359999999999992 14165.792026440577
9.389999999999992 14164.392924396794
9.419999999999991 14163.373645737884
9.44999999999999 14162.729029814347
9.47999999999999 14162.429811486927
9.50999999999999 14162.426137822653
9.539999999999988 14162.652493822648
9.569999999999988 14163.037989205635
9.599999999999987 14163.517827093825
9.629999999999987 14164.044661905777
9.659999999999986 14164.59509548169
9.689999999999985 14165.173097292109
9.719999999999985 14165.81988009547
9.749999999999984 14166.61505756087
9.779999999999983 14167.67563571119
9.809999999999983 14169.14546484474
9.839999999999982 14171.190367562533
9.869999999999981 14173.981140135136
9.89999999999998 14177.670478767037
9.92999999999998 14182.379042645627
9.95999999999998 14188.175354475308
9.989999999999979 14195.070726208081
10.019999999999978 13034.907181627163
10.049999999999978 10339.940592427181
10.079999999999977 6532.603009503826
10.109999999999976 2140.82850699733
10.139999999999976 -2269.68536653529
10.169999999999975 -6165.968624558512
10.199999999999974 -9110.520636280193
10.229999999999974 -10808.491440850023
10.259999999999973 -11134.343693069019
10.289999999999973 -10136.148816605744
10.319999999999972 -8018.537119868984
10.349999999999971 -5107.758185701486
10.37999999999997 -1804.2240115850707
10.40999999999997 1470.8276093722234
10.43999999999997 4327.570253331853
10.469999999999969 6452.511950483261
10.499999999999968 7640.936215195338
10.529999999999967 7813.93665644002
10.559999999999967 7018.991910455514
10.589999999999966 5415.23689785262
10.619999999999965 3246.3570456677467
10.649999999999965 805.3290119379262
10.679999999999964 -1604.1138949080191
10.709999999999964 -3704.379766567565
10.739999999999963 -5274.961748151709
10.769999999999962 -6174.183235789632
10.799999999999962 -6349.899381902
10.829999999999961 -5838.7890983124225
10.85999999999996 -4755.260005398287
10.88999999999996 -3272.1074099581433
10.919999999999959 -1595.8504869847695
10.949999999999958 59.97636251101984
10.979999999999958 1500.3162764001113
11.009999999999957 2569.991515200925
11.039999999999957 3168.82080515348
11.069999999999956 3259.144508884832
11.099999999999955 2865.4356370965734
11.129999999999955 2066.666402640855
11.159999999999954 982.8510188981551
11.189999999999953 -242.1788065035734
11.219999999999953 -1459.4267929017901
11.249999999999952 -2532.483588932654
11.279999999999951 -3352.358711809844
11.30999999999995 -3847.891361482651
11.33999999999995 -3990.896622468997
11.36999999999995 -3795.896652313859
11.399999999999949 -3314.9308191192226
11.429999999999948 -2628.46315576554
11.459999999999948 -1833.7807364460405
11.489999999999947 -1032.4236131118596
11.519999999999946 -318.1847257217353
11.549999999999946 232.99667332207108
11.579999999999945 570.2480477547808
11.609999999999944 671.4582124854643
11.639999999999944 543.3664756574427
11.669999999999943 218.3436530218986
11.699999999999942 -251.4825416132789
11.729999999999942 -801.8539682102826
11.759999999999941 -1364.7535126800149
11.78999999999994 -1876.4328114954687
11.81999999999994 -2284.2352065810724
11.84999999999994 -2551.5616650797097
11.879999999999939 -2660.6070803663642
11.909999999999938 -2612.7226761875145
11.939999999999937 -2426.6231199905233
11.969999999999937 -2134.7720128591086
11.999999999999936 -1778.510571543102
12.029999999999935 -1402.6450630975098
12.059999999999935 -1050.1618716261203
12.089999999999934 -757.6013610352653
12.119999999999933 -551.575326148173
12.149999999999933 -446.70529259399774
12.179999999999932 -445.1115687970414
12.209999999999932 -537.3557567151988
12.239999999999931 -704.5348870684975
12.26999999999993 -921.221134706177
12.29999999999993 -1158.8570632037345
12.329999999999929 -1389.1245874468095
12.359999999999928 -1587.0225798940564
12.389999999999928 -1733.2779531396268
12.419999999999927 -1815.891482431009
12.449999999999926 -1830.754229661274
12.479999999999926 -1781.3385653960322
12.509999999999925 -1677.618117247955
12.539999999999925 -1534.383260856427
12.569999999999924 -1369.215874101137
12.599999999999923 -1200.354041058229
12.629999999999923 -1044.7290636789542
12.659999999999922 -916.3199579976301
12.689999999999921 -824.9756757512823
12.71999999999992 -775.7787880065861
12.74999999999992 -768.9634867754543
12.77999999999992 -800.3862603916098
12.809999999999919 -862.3880815125018
12.839999999999918 -944.9158714035236
12.869999999999918 -1036.7675855301438
12.899999999999917 -1126.8219045758105
12.929999999999916 -1205.1558673406455
12.959999999999916 -1263.9351326475594
12.989999999999915 -1298.0028541714034
13.019999999999914 -1305.1464072494657
13.049999999999914 -1286.0531748983592
13.079999999999913 -1243.9929475784352
13.109999999999912 -1184.2789706402962
13.139999999999912 -1113.5773892363882
13.169999999999911 -1039.1495801619374
13.19999999999991 -968.1072613260241
13.22999999999991 -906.7451788338624
13.25999999999991 -860.0098649007505
13.289999999999909 -831.1515434458454
13.319999999999908 -821.5463970340862
13.349999999999907 -830.7035352359262
13.379999999999907 -856.4425020135086
13.409999999999906 -895.2126016784082
13.439999999999905 -942.51689424603
13.469999999999905 -993.3877212185339
13.499999999999904 -1042.8814663403896
13.529999999999903 -1086.5342090145775
13.559999999999903 -1120.7444010674633
13.589999999999902 -1143.0544784462325
13.619999999999902 -1152.3196342365732
13.6499999999999 -1148.7509640507808
13.6799999999999 -1133.8309144835393
13.7099999999999 -1110.1154609544299
13.739999999999899 -1080.9427419076517
13.769999999999898 -1050.0746637205946
13.799999999999898 -1021.3119242377015
13.829999999999897 -998.123449214485
13.859999999999896 -983.3229243705302
13.889999999999896 -978.811223961336
13.919999999999895 -985.4162269457082
13.949999999999894 -1002.8477857019348
13.979999999999894 -1029.7660068753887
14.009999999999893 -1063.947882070557
14.039999999999893 -1102.5358296145298
14.069999999999892 -1142.3503491153417
14.099999999999891 -1180.2212077781435
14.12999999999989 -1213.3134569423048
14.15999999999989 -1239.4119066331543
14.18999999999989 -1257.126051102271
14.219999999999889 -1266.0070509911327
14.249999999999888 -1266.5692003234822
14.279999999999887 -1260.2022944771938
14.309999999999887 -1248.9964575948293
14.339999999999886 -1235.5008072315209
14.369999999999886 -1222.435761481242
14.399999999999885 -1212.399404746031
14.429999999999884 -1207.5930586468014
14.459999999999884 -1209.5991348603984
14.489999999999883 -1219.2277007804469
14.519999999999882 -1236.4508919217756
14.549999999999882 -1260.4296348997282
14.579999999999881 -1289.6302066924334
14.60999999999988 -1322.0043881428098
14.63999999999988 -1355.2223299746067
14.66999999999988 -1386.9387353704412
14.699999999999878 -1415.0442739011883
14.729999999999878 -1437.877000996471
14.759999999999877 -1454.3890396560207
14.789999999999877 -1464.2399421319208
14.819999999999876 -1467.8045850155647
14.849999999999875 -1466.1048326861676
14.879999999999875 -1460.667469224433
14.909999999999874 -1453.3282825322808
14.939999999999873 -1446.0044824779504
14.969999999999873 -1440.4759512432993
14.999999999999872 -1438.193517471846
15.029999999999871 -1440.1279388727903
15.05999999999987 -1446.6827095568722
15.08999999999987 -1457.6616885674184
15.11999999999987 -1472.31245807419
15.149999999999869 -1489.4378727779515
15.179999999999868 -1507.5481663025855
15.209999999999868 -1525.047846964744
15.239999999999867 -1540.420147165758
15.269999999999866 -1552.373880516346
15.299999999999866 -1559.9750442546438
15.329999999999865 -1562.7413626683378
15.359999999999864 -1560.682227415144
15.389999999999864 -1554.282413681306
15.419999999999863 -1544.4288447796594
15.449999999999863 -1532.296735830401
15.479999999999862 -1519.2086874823563
15.509999999999861 -1506.4796489169203
15.53999999999986 -1495.2693451020637
15.56999999999986 -1486.459783059344
15.59999999999986 -1480.5699104466812
15.629999999999859 -1477.7084593635116
15.659999999999858 -1477.5913669399024
15.689999999999857 -1479.5944543658145
15.719999999999857 -1482.8402909236263
15.749999999999856 -1486.3084471180823
15.779999999999855 -1488.9764388831657
15.809999999999855 -1489.9475257305355
15.839999999999854 -1488.5481203953739
15.869999999999854 -1484.387594311008
15.899999999999853 -1477.3778249083393
15.929999999999852 -1467.7396605930717
15.959999999999852 -1455.9760494674094
15.989999999999851 -1442.802960600744
16.01999999999985 -1429.0628038324435
16.04999999999985 -1415.6272767367414
16.079999999999853 -1403.2963809170212
16.109999999999854 -1392.7244296982847
