# Results for "element" with Id # 2878336 for search config "initial" at position: x0: -500; y0: 0; z0: 166.6667
# time PRESSURE VELOCITY_X VELOCITY_Y VELOCITY_Z
0.03 1572.027897407948 0.007073596054253799 2.7759696486728603e-06 -0.00022839678272866036
0.06 4495.099056858055 0.02966462244389163 1.777574503445885e-05 -0.0009786629604649764
0.09 8441.718854137722 0.07518506648035633 5.741432198540803e-05 -0.0025374696637795197
0.12 13008.337120168346 0.14887942400415768 0.00013406065740227625 -0.005146823182987472
0.15 17753.38012506031 0.25327639364070936 0.0002578991511876268 -0.008979612185183982
0.18 22237.688475905034 0.38802349265961195 0.00043531035736953685 -0.01412345177544937
0.21 26063.44252304672 0.5500265527934767 0.0006677791741083155 -0.020572148362067784
0.24 28908.27289937904 0.7338435420014305 0.0009513838046186553 -0.02822467788462179
0.27 30551.757217107923 0.9322785535942013 0.001276886910215765 -0.03689123315468005
0.30000000000000004 30892.103564668967 1.1371117604821293 0.0016304051753336865 -0.046305581118659594
0.33000000000000007 29951.60772281991 1.339893196351368 0.001994584446164178 -0.056142852152958445
0.3600000000000001 27870.45533778672 1.532725549148086 0.0023501653041431746 -0.0660418562684095
0.3900000000000001 24889.562066225593 1.7089647408258601 0.0026777851397319476 -0.07563090554050785
0.42000000000000015 21324.27294913084 1.8637769202181325 0.0029598390482576523 -0.08455582597028195
0.4500000000000002 17531.716711026987 1.9945058143691594 0.0031822115452536607 -0.09250838401467369
0.4800000000000002 13875.270595873362 2.100823711690658 0.0033356975650213954 -0.0992528649688965
0.5100000000000002 10689.826291075655 2.184660742491343 0.003416956907654199 -0.10464821572755773
0.5400000000000003 8251.323176206004 2.249928355362179 0.0034288905004493274 -0.10866318225800932
0.5700000000000003 6753.381981889791 2.302071759081326 0.0033803869067806597 -0.11138232913905546
0.6000000000000003 6292.950033044851 2.3475007414719893 0.0032854562566686785 -0.11300170446073314
0.6300000000000003 6865.812512320195 2.3929573689309867 0.0031618403550876446 -0.11381406957915254
0.6600000000000004 8371.788705131286 2.44488201570886 0.0030292460463035103 -0.11418483660888304
0.6900000000000004 10628.53287106944 2.5088361060642868 0.0029073982453521247 -0.1145209324293594
0.7200000000000004 13392.174021150795 2.5890316155363853 0.002814123962890368 -0.11523555543496544
0.7500000000000004 16382.570733891935 2.6880049867091445 0.002763674048885044 -0.11671213457843424
0.7800000000000005 19310.72191428864 2.806458148945926 0.0027654557242294407 -0.11927075811866478
0.8100000000000005 21905.832719146252 2.943273309730121 0.0028232955452898744 -0.12313999529070596
0.8400000000000005 23939.66582969568 3.095692527475784 0.00293528707292889 -0.12843649397121515
0.8700000000000006 25246.09909945203 3.259638999280394 0.003094209511124708 -0.13515408320834105
0.9000000000000006 25734.253770105675 3.430145484227211 0.003288443816626744 -0.1431633834652654
0.9300000000000006 25394.142795851567 3.6018470965933305 0.003503265040372538 -0.15222213458648973
0.9600000000000006 24294.483626442234 3.7694913920841175 0.003722362793151769 -0.1619956003198503
0.9900000000000007 22573.0749062857 3.9284185390875535 0.003929430904216681 -0.17208551682331755
1.0200000000000007 20420.86710838319 4.074968448885345 0.0041096732273881885 -0.18206520518369018
1.0500000000000007 18061.48316740671 4.206779709303037 0.004251092971414378 -0.1915177523469017
1.0800000000000007 15728.37523502194 4.322956306998825 0.004345460445343377 -0.20007371512628944
1.1100000000000008 13641.983894354637 4.424091350540819 0.0043888878170766366 -0.20744470928681433
1.1400000000000008 11989.173686867194 4.512150965636142 0.004381976240194444 -0.21344956508934562
1.1700000000000008 10906.875603996426 4.590234764164316 0.004329538974242347 -0.21803044595414428
1.2000000000000008 10471.332316702381 4.662240421788113 0.004239940442754053 -0.2212573505365272
1.2300000000000009 10693.69439074055 4.7324678573765 0.004124126822024516 -0.22332062107134806
1.260000000000001 11522.044497148523 4.80520261883529 0.00399444981625606 -0.22451229731887903
1.290000000000001 12849.30458761465 4.88431818072441 0.0038634057181597442 -0.22519824919385156
1.320000000000001 14525.966519770118 4.972933193505924 0.003742418174010803 -0.22578386174780998
1.350000000000001 16376.211463914715 5.073152934974438 0.0036407844358847087 -0.22667658182852615
1.380000000000001 18215.760802875775 5.185915151997643 0.0035648846189970363 -0.22824883081153366
1.410000000000001 19869.731614279746 5.310950108903654 0.0035177211225518403 -0.23080466330149893
1.440000000000001 21188.844843001676 5.44685393963294 0.0034988166517980856 -0.23455314186300943
1.470000000000001 22062.542487825413 5.59126423075892 0.0035044591168254514 -0.2395907506499407
1.500000000000001 22427.894745926213 5.741117938927136 0.0035282467890366256 -0.24589434395078408
1.5300000000000011 22273.59811415291 5.892964932606095 0.003561858703258682 -0.2533251733590091
1.5600000000000012 21638.846126067518 6.043306180398926 0.0035959598005001446 -0.26164353527232265
1.5900000000000012 20607.3570934772 6.188924214638289 0.0036211456701999143 -0.27053260061181483
1.6200000000000012 19297.313741832655 6.327175112354411 0.0036288335727868238 -0.2796291219523674
1.6500000000000012 17848.358547104715 6.456215708088413 0.003612022032585238 -0.2885580532529006
1.6800000000000013 16407.051173378703 6.575146663409246 0.0035658579290573675 -0.29696773525171877
1.7100000000000013 15112.298558956727 6.684060671133645 0.0034879707848668364 -0.304562257501682
1.7400000000000013 14082.207149031672 6.783994576537801 0.0033785562131121924 -0.31112791699589964
1.7700000000000014 13403.593219111963 6.876793555829454 0.0032402129711601416 -0.3165513258843931
1.8000000000000014 13125.055116656284 6.9649037275432 0.0030775585912925724 -0.32082760016075906
1.8300000000000014 13254.10501760066 7.051115871009834 0.0028966684029023354 -0.3240580861131337
1.8600000000000014 13758.429805926182 7.1382867041657 0.002704397268094538 -0.3264381232263304
1.8900000000000015 14570.944351575783 7.229065198823694 0.0025076534819746437 -0.3282362956590217
1.9200000000000015 15597.956446964108 7.3256497163706 0.002312699292367401 -0.32976738634239083
1.9500000000000015 16729.50554478973 7.429597688921815 0.002124547133860746 -0.3313617596688084
1.9800000000000015 17850.781403623758 7.541703673011057 0.0019465093387045 -0.3333341348105266
2.0100000000000016 18853.481116077684 7.661954531803239 0.0017799416096823716 -0.335954667518466
2.0400000000000014 19646.0195540491 7.789562952651454 0.001624198196516539 -0.3394249592948466
2.070000000000001 20161.660756861933 7.923073163154169 0.0014767929817897471 -0.3438610947253372
2.100000000000001 20363.87050502667 8.060526196657543 0.0013337392932715776 -0.34928512051747357
2.130000000000001 20248.483015891277 8.199666905240077 0.0011900233173624754 -0.3556255764267185
2.1600000000000006 19842.598807470014 8.338171556739425 0.0010401552585679748 -0.3627268406714671
2.1900000000000004 19200.456563620406 8.473873534980678 0.0008787383583751615 -0.3703662244831537
2.22 18396.81478340441 8.604965518242942 0.0007009976768960201 -0.3782770283044419
2.25 17518.60925250958 8.73015942355465 0.0005032194798459297 -0.38617522258975284
2.28 16655.79635024741 8.848790085484048 0.00028306358209152056 -0.39378709882430696
2.3099999999999996 15892.33508316495 8.960854594743106 3.9726088007089306e-05 -0.4008751883846956
2.3399999999999994 15298.202726390802 9.066985821567252 -0.00022605525854330806 -0.4072599732565243
2.369999999999999 14923.190060842382 9.168365194039326 -0.0005121456199874612 -0.4128353864513953
2.399999999999999 14793.004561466349 9.266585606859469 -0.000815286667783374 -0.4175767645935518
2.429999999999999 14907.950109121493 9.363479828273999 -0.001131466863460156 -0.4215406969618391
2.4599999999999986 15244.181241453798 9.460932535323668 -0.0014563477218197877 -0.424857024230433
2.4899999999999984 15757.275145796531 9.560694961079934 -0.0017857016544427702 -0.4277139996077796
2.5199999999999982 16387.65129496467 9.66422007907727 -0.0021158163798106248 -0.4303382550218984
2.549999999999998 17067.21265905398 9.772533507096858 -0.002443826129270442 -0.43297166625085737
2.579999999999998 17726.495302990155 9.88615123115318 -0.0027679385668311065 -0.4358474476647321
2.6099999999999977 18301.598918181444 10.005050288355502 -0.003087539128318826 -0.43916781601462074
2.6399999999999975 18740.22644645809 10.128693206186485 -0.0034031680821920876 -0.4430853495160231
2.6699999999999973 19006.27891039628 10.256101778476065 -0.0037163798588035223 -0.44768975840939323
2.699999999999997 19082.618361470424 10.38597113840519 -0.004029506483894167 -0.4530012160225828
2.729999999999997 18971.81013949844 10.516811475757915 -0.00434535571804974 -0.45897073044666215
2.7599999999999967 18694.865421057075 10.647102457546858 -0.004666880053806217 -0.46548733062602654
2.7899999999999965 18288.205032624508 10.775444636835967 -0.004996851973263905 -0.47239116489195276
2.8199999999999963 17799.234764625293 10.90069293994458 -0.005337578235273313 -0.4794910375604665
2.849999999999996 17281.045450133377 11.022059592449148 -0.0056906788121120575 -0.48658449535054643
2.879999999999996 16786.815433763786 11.139177333709641 -0.006056947632929547 -0.49347836457186933
2.9099999999999957 16364.494723441714 11.252118090481874 -0.00643630238237979 -0.500007651774516
2.9399999999999955 16052.291978385067 11.361366960007064 -0.006827821743818346 -0.5060509500393027
2.9699999999999953 15875.376508788077 11.467755889668169 -0.0072298601036288445 -0.5115409096694132
2.999999999999995 15844.062254326624 11.572365359308623 -0.0076402231554224724 -0.516468886024035
3.029999999999995 15953.576674245534 11.676405283392912 -0.008056383371236315 -0.5208835035126183
3.0599999999999947 16185.352278082879 11.781087994504649 -0.008475711461827464 -0.5248835060884474
3.0899999999999945 16509.629249014233 11.88750643441129 -0.00889570073134583 -0.5286058334743966
3.1199999999999943 16889.03828564982 11.996529600892586 -0.009314162859507 -0.5322103126215243
3.149999999999994 17282.75259086902 12.108725056645115 -0.009729378077053954 -0.535862645697105
3.179999999999994 17650.763173535393 12.224315174821989 -0.010140188336362042 -0.5397174853530192
3.2099999999999937 17957.842746079055 12.343170126744054 -0.010546029006385786 -0.5439033119498792
3.2399999999999936 18176.817052043014 12.464836794995088 -0.010946901014457593 -0.5485105797938074
3.2699999999999934 18290.85142802339 12.588599199837255 -0.011343291477508743 -0.5535842115036999
3.299999999999993 18294.574229882444 12.713563005866984 -0.011736055389600446 -0.5591210345853228
3.329999999999993 18193.98508896698 12.838754513184915 -0.012126273713230308 -0.5650722254986484
3.3599999999999928 18005.22160098609 12.963223422754382 -0.01251510420765901 -0.571350307582935
3.3899999999999926 17752.370256561782 13.086138688388333 -0.012903639692185324 -0.5778397963154479
3.4199999999999924 17464.59480158038 13.206867893560132 -0.013292786230397632 -0.5844102426398399
3.449999999999992 17172.91054973776 13.325032670632039 -0.013683170096142673 -0.5909302257684788
3.479999999999992 16906.951517096437 13.440535468856444 -0.014075078474178956 -0.5972808077836411
3.509999999999992 16692.059059079707 13.553556153090653 -0.014468435186065593 -0.6033670817141026
3.5399999999999916 16546.969532308318 13.664520126288455 -0.014862809288821083 -0.6091267038411428
3.5699999999999914 16482.301858750423 13.774042568089202 -0.01525745205209149 -0.614534666060125
3.599999999999991 16499.95299540599 13.882855671601648 -0.015651356094086834 -0.6196039907574055
3.629999999999991 16593.41068766827 13.991727224914122 -0.016043329260558473 -0.6243824713911332
3.659999999999991 16748.89924972463 14.101379404579848 -0.016432076041505178 -0.6289459886045866
3.6899999999999906 16947.19443686072 14.212416215174724 -0.016816279307341947 -0.633389262647253
3.7199999999999904 17165.884965968286 14.325266715521174 -0.01719467627729289 -0.6378151278140142
3.7499999999999902 17381.82576515942 14.440149195619375 -0.017566123878373672 -0.6423235152273489
3.77999999999999 17573.523069969182 14.557059044343072 -0.01792965015612177 -0.647001302036985
3.80999999999999 17723.213186013836 14.675780450055514 -0.01828448981643637 -0.6519140375751065
3.8399999999999896 17818.441402811524 14.795919579100675 -0.018630103573214322 -0.6571003110952076
3.8699999999999894 17853.00934100732 14.91695473608226 -0.018966181871706456 -0.6625692116748501
3.8999999999999893 17827.23087565624 15.03829743281692 -0.01929263444551838 -0.668300985065907
3.929999999999989 17747.510806683564 15.159357420910169 -0.019609567887541583 -0.6742506516245194
3.959999999999989 17625.328860979556 15.27960464286238 -0.01991725308348404 -0.680354050573549
3.9899999999999887 17475.767678492433 15.398621708186315 -0.020216084843780735 -0.6865355480577605
4.019999999999989 17315.76218850737 15.516141805657576 -0.020506535793851168 -0.6927165109640859
4.049999999999989 17162.265798792934 15.632068753448767 -0.020789106720920818 -0.6988236153151169
4.079999999999989 17030.525870134727 15.7464779523638 -0.021064275795046952 -0.7047961257425148
4.10999999999999 16932.638152495892 15.859599107473963 -0.021332449322056607 -0.7105914388661314
4.13999999999999 16876.511034683273 15.971783490068857 -0.021593917041411826 -0.7161884066986314
4.16999999999999 16865.32048730235 16.083460026636264 -0.0218488152182731 -0.7215882187112806
4.19999999999999 16897.48131849414 16.19508547922122 -0.02209710059542303 -0.7268128924267077
4.229999999999991 16967.105898563266 16.307094344187934 -0.02233853786265642 -0.7319016730306336
4.259999999999991 17064.873265145598 16.41985383390727 -0.02257270268094847 -0.736905845958857
4.289999999999991 17179.194375131763 16.53362848303285 -0.02279900105596346 -0.7418826046405972
4.319999999999991 17297.535739587165 16.64855765226259 -0.02301670451278188 -0.746888677288751
4.349999999999992 17407.756223465054 16.764647648667843 -0.023224999129953454 -0.751974399673454
4.379999999999992 17499.31928176514 16.88177852338589 -0.02342304488776217 -0.7571788319654926
4.409999999999992 17564.264353979368 16.999724027203875 -0.023610040700530407 -0.7625263705391292
4.439999999999992 17597.853096546085 17.118181868165543 -0.02378528965608674 -0.7680251192228298
4.469999999999993 17598.84485178896 17.236810454391467 -0.02394825853766443 -0.7736670810892914
4.499999999999993 17569.396730053988 17.35526780552114 -0.024098626002636358 -0.7794300343224573
4.529999999999993 17514.62257003286 17.473248309021784 -0.024236314338993144 -0.7852807846411023
4.559999999999993 17441.87805546118 17.59051346170962 -0.024361501096511664 -0.7911793594116872
4.589999999999994 17359.86294332021 17.706913597222936 -0.024474608746585195 -0.7970836358755752
4.619999999999994 17277.644565534618 17.82239874379904 -0.0245762725344114 -0.8029538823754819
4.649999999999994 17203.70795484887 17.937018043484294 -0.024667289097325483 -0.8087567349910377
4.679999999999994 17145.128337228824 18.050908444775065 -0.02474855021377217 -0.8144682244607752
4.709999999999995 17106.94291948093 18.164274513707785 -0.02482096792231466 -0.8200755959890698
4.739999999999995 17091.773259870173 18.277362076860157 -0.024885398263982197 -0.8255778117171355
4.769999999999995 17099.72027515261 18.390428931614828 -0.024942571273747768 -0.8309847746665306
4.799999999999995 17128.524425116335 18.50371599639508 -0.02499303427849571 -0.8363154476579242
4.829999999999996 17173.956790356322 18.61742203136598 -0.025037114605924032 -0.8415951471105158
4.859999999999996 17230.38523278668 18.731684488992244 -0.025074905535474576 -0.8468523605486349
4.889999999999996 17291.445626204866 18.84656823206548 -0.025106277265150724 -0.8521154627459986
4.919999999999996 17350.741987283054 18.962062892182843 -0.025130911930784164 -0.8574096894372004
4.949999999999997 17402.501623828957 19.0780886452418 -0.025148359154319733 -0.8627546733958591
4.979999999999997 17442.121107428113 19.19450926649727 -0.025158106696844842 -0.8681627648474177
5.009999999999997 17466.55452284578 19.31115059091944 -0.025159659050828124 -0.8736382573220176
5.039999999999997 17474.515102728295 19.427822017181388 -0.025152616033477754 -0.879177533344473
5.069999999999998 17466.482648213325 19.544338494923032 -0.02513674328771197 -0.8847700437233846
5.099999999999998 17444.529634562303 19.660540531616167 -0.025112027828887593 -0.8903999503486739
5.129999999999998 17411.996682018114 19.776310122465002 -0.025078712685865423 -0.8960482039512999
5.159999999999998 17373.061459974822 19.89158108397695 -0.025037307425330904 -0.9016947984671622
5.189999999999999 17332.25284076197 20.00634298716004 -0.024988573667837702 -0.9073209448732438
5.219999999999999 17293.964125327344 20.120638648405357 -0.024933487356861357 -0.91291093639565
5.249999999999999 17262.015316709567 20.234555858631946 -0.024873181721075277 -0.9184535289457227
5.279999999999999 17239.305799100446 20.34821463356081 -0.024808876938541516 -0.9239427274545932
5.31 17227.58642011741 20.461751690720934 -0.024741803875377888 -0.9293779425507672
5.34 17227.365575814732 20.575304064559152 -0.024673129744703415 -0.9347635538258627
5.37 17237.94904501998 20.68899374919295 -0.024603893144990827 -0.9401079777344702
5.4 17257.599600117857 20.80291502474857 -0.024534954980704925 -0.9454223839206477
5.430000000000001 17283.79104874972 20.917125718721547 -0.024466969915630382 -0.9507192300771059
5.460000000000001 17313.523736923777 21.03164313165004 -0.024400381004306863 -0.956010790414145
5.490000000000001 17343.664472000084 21.14644478604734 -0.02433543729431632 -0.9613078386104069
5.520000000000001 17371.274314704162 21.261473603153632 -0.02427223216863147 -0.9666186150099939
5.550000000000002 17393.891658277764 21.376646637064816 -0.024210758037670085 -0.9719481650027809
5.580000000000002 17409.745113153724 21.491866148416992 -0.02415097135920029 -0.9772980868107823
5.610000000000002 17417.879912258777 21.60703161255907 -0.024092861193295255 -0.9826666784916367
5.640000000000002 17418.191660362085 21.7220512407115 -0.024036514239610094 -0.9880494307714016
5.670000000000003 17411.371253970414 21.836851738527432 -0.023982169955042293 -0.9934397788127568
5.700000000000003 17398.77355188112 21.951385309142417 -0.023930259970008274 -0.998830005411301
5.730000000000003 17382.22919658036 22.065633285837855 -0.023881428129088916 -1.0042121816074876
5.760000000000003 17363.823139517295 22.17960620412949 -0.02383652975210762 -1.0095790374781566
5.790000000000004 17345.665070171755 22.293340542328757 -0.023796610737648702 -1.0149246741339042
5.820000000000004 17329.675616207973 22.406892725292796 -0.02376286914669632 -1.0202450540163017
5.850000000000004 17317.408703496978 22.52033126088226 -0.02373660382742934 -1.0255382379808147
5.880000000000004 17309.925049458165 22.633728035735444 -0.023719155451348343 -1.0308043692528233
5.910000000000005 17307.72543207381 22.747149825324023 -0.023711846050924603 -1.0360454326134716
5.940000000000005 17310.745528653544 22.860650978981514 -0.023715923178984504 -1.0412648397358362
5.970000000000005 17318.407770816797 22.97426804153418 -0.02373251400048392 -1.046466906051944
6.000000000000005 17329.720222559095 23.08801679935371 -0.023762593683293507 -1.051656289837936
6.030000000000006 17343.40873584738 23.201891925648486 -0.023806970594349327 -1.0568374606400435
6.060000000000006 17358.066261324024 23.315869087949533 -0.02386628923913328 -1.0620142535439312
6.090000000000006 17372.302964079663 23.42990910546126 -0.023941049963283067 -1.0671895500181134
6.120000000000006 17384.882080785592 23.543963534240003 -0.024031643168711515 -1.0723651069629452
6.150000000000007 17394.82926302647 23.657980933970705 -0.024138393960892762 -1.0775415358139644
