# Result of eigenvalue analysis
# Mode | Eigenfrequency [Hz] | Period [s]
1 0.02408 41.52972
2 0.07227 13.83641
3 0.12083 8.27643
4 0.16934 5.90534
5 0.21802 4.58664
6 0.22998 4.34816
7 0.26686 3.74723
8 0.31594 3.16514
9 0.36527 2.73767
10 0.40000 2.50001
11 0.41492 2.41009
12 0.46491 2.15094
13 0.51530 1.94062
14 0.56612 1.76642
15 0.61741 1.61966
