# Results for "element" with Id # 2049959 for search config "initial" at position: x0: 1.64736842105; y0: 0; z0: 249.9998
# time PRESSURE
0.03 1349.2431087886675
0.06 3858.472981670481
0.09 7247.042269145487
0.12 11168.971432480543
0.15 15245.56092055275
0.18 19100.092873252463
0.21 22391.225578226953
0.24 24842.223856759443
0.27 26263.62421064885
0.30000000000000004 26567.47230296347
0.33000000000000007 25771.960696929895
0.3600000000000001 23996.136860573686
0.3900000000000001 21445.296182789327
0.42000000000000015 18388.61658151595
0.4500000000000002 15131.398189353358
0.4800000000000002 11984.82021089513
0.5100000000000002 9236.325118207149
0.5400000000000003 7123.560143317931
0.5700000000000003 5814.286732244819
0.6000000000000003 5393.903098436634
0.6300000000000003 5861.3435311499115
0.6600000000000004 7133.239525788744
0.6900000000000004 9055.462098452674
0.7200000000000004 11420.565431636933
0.7500000000000004 13989.250140358163
0.7800000000000005 16513.750256690146
0.8100000000000005 18761.00461537111
0.8400000000000005 20533.5816877029
0.8700000000000006 21686.573701577374
0.9000000000000006 22139.054646707114
0.9300000000000006 21879.19071283349
0.9600000000000006 20962.680970979833
0.9900000000000007 19504.84325953613
1.0200000000000007 17667.275565130967
1.0500000000000007 15640.560329985354
1.0800000000000007 13624.847131871147
1.1100000000000008 11810.315312743096
1.1400000000000008 10359.454212381068
1.1700000000000008 9392.823473985678
1.2000000000000008 8979.513389489151
1.2300000000000009 9132.98587874387
1.260000000000001 9812.405112968714
1.290000000000001 10929.037949895437
1.320000000000001 12356.853679722997
1.350000000000001 13946.124525621852
1.380000000000001 15538.625507399702
1.410000000000001 16982.961027087877
1.440000000000001 18148.59908986942
1.470000000000001 18937.36203978208
1.500000000000001 19291.393037321504
1.5300000000000011 19196.96755799774
1.5600000000000012 18683.928096671872
1.5900000000000012 17820.942878768663
1.6200000000000012 16707.19915135453
1.6500000000000012 15461.47461532087
1.6800000000000013 14209.768181429748
1.7100000000000013 13072.772494783263
1.7400000000000013 12154.434343533718
1.7700000000000014 11532.681355085399
1.8000000000000014 11253.120713539587
1.8300000000000014 11326.17720138704
1.8600000000000014 11727.772932389267
1.8900000000000015 12403.302049544192
1.9200000000000015 13274.351434023421
1.9500000000000015 14247.389112766881
1.9800000000000015 15223.496729177235
2.0100000000000016 16108.170502232908
2.0400000000000014 16820.251970582725
2.070000000000001 17299.17053324684
2.100000000000001 17509.87139175807
2.130000000000001 17445.04642297973
2.1600000000000006 17124.56050779793
2.1900000000000004 16592.24450438864
2.22 15910.480810950667
2.25 15153.211816285422
2.28 14398.134968226444
2.3099999999999996 13718.897558988527
2.3399999999999994 13178.066927650782
2.369999999999999 12821.536486123841
2.399999999999999 12674.850297653527
2.429999999999999 12741.712381461119
2.4599999999999986 13004.716410508256
2.4899999999999984 13428.110645399263
2.5199999999999982 13962.223825208945
2.549999999999998 14549.035929866335
2.579999999999998 15128.292316125515
2.6099999999999977 15643.536727705152
2.6399999999999975 16047.476204789133
2.6699999999999973 16306.182635510288
2.699999999999997 16401.771694264273
2.729999999999997 16333.365522133401
2.7599999999999967 16116.32390611446
2.7899999999999965 15779.902002098574
2.8199999999999963 15363.643561617697
2.849999999999996 14912.93102872131
2.879999999999996 14474.179664432833
2.9099999999999957 14090.174779398789
2.9399999999999955 13796.011581585393
2.9699999999999953 13616.012754879881
2.999999999999995 13561.880626035225
3.029999999999995 13632.203346521994
3.0599999999999947 13813.292315862003
3.0899999999999945 14081.197180028235
3.1199999999999943 14404.634908781978
3.149999999999994 14748.493831599939
3.179999999999994 15077.533484911939
3.2099999999999937 15359.9016314316
3.2399999999999936 15570.12734750241
3.2699999999999934 15691.318478716361
3.299999999999993 15716.38502219402
3.329999999999993 15648.216382625713
3.3599999999999928 15498.84952580676
3.3899999999999926 15287.76424404929
3.4199999999999924 15039.523896318131
3.449999999999992 14781.03386714874
3.479999999999992 14538.714962593755
3.509999999999992 14335.881354064877
3.5399999999999916 14190.576244043838
3.5699999999999914 14114.058083803306
3.599999999999991 14110.05374947215
3.629999999999991 14174.810922113975
3.659999999999991 14297.899440130506
3.6899999999999906 14463.639050171409
3.7199999999999904 14652.974103624863
3.7499999999999902 14845.581568896805
3.77999999999999 15021.986626181548
3.80999999999999 15165.472268515594
3.8399999999999896 15263.601917702212
3.8699999999999894 15309.223250181236
3.8999999999999893 15300.881194534299
3.929999999999989 15242.632059305966
3.959999999999989 15143.311863046765
3.9899999999999887 15015.36418021754
4.019999999999989 14873.372035494343
4.049999999999989 14732.459582048234
4.079999999999989 14606.733402560429
4.10999999999999 14507.919163161423
4.13999999999999 14444.320384751423
4.16999999999999 14420.185821569215
4.19999999999999 14435.525258147718
4.229999999999991 14486.365384233104
4.259999999999991 14565.393750945928
4.289999999999991 14662.901543634129
4.319999999999991 14767.911735716541
4.349999999999992 14869.366831242623
4.379999999999992 14957.251945949585
4.409999999999992 15023.54324343229
4.439999999999992 15062.896093814361
4.469999999999993 15073.019057844136
4.499999999999993 15054.715046073585
4.529999999999993 15011.606250682693
4.559999999999993 14949.590115585324
4.589999999999994 14876.09878989732
4.619999999999994 14799.249481573397
4.649999999999994 14726.97908817036
4.679999999999994 14666.252091297903
4.709999999999995 14622.417486681094
4.739999999999995 14598.770850132913
4.769999999999995 14596.352935330597
4.799999999999995 14613.989893859929
4.829999999999996 14648.555905695745
4.859999999999996 14695.416733053955
4.889999999999996 14748.997565837215
4.919999999999996 14803.409119041164
4.949999999999997 14853.064509392005
4.979999999999997 14893.22482199627
5.009999999999997 14920.422595270558
5.039999999999997 14932.728219745564
5.069999999999998 14929.842669823915
5.099999999999998 14913.018886248858
5.129999999999998 14884.830898981552
5.159999999999998 14848.824804134507
5.189999999999999 14809.09473162319
5.219999999999999 14769.831958140576
5.249999999999999 14734.894808877214
5.279999999999999 14707.4415614375
5.31 14689.659114379016
5.34 14682.608563919131
5.37 14686.19542485854
5.4 14699.258929836076
5.430000000000001 14719.762665321494
5.460000000000001 14745.06060445584
5.490000000000001 14772.206087745724
5.520000000000001 14798.269589053973
5.550000000000002 14820.632317708028
5.580000000000002 14837.227813170924
5.610000000000002 14846.710956104629
5.640000000000002 14848.542327718602
5.670000000000003 14842.985548293966
5.700000000000003 14831.023904301837
5.730000000000003 14814.210697021732
5.760000000000003 14794.473013920719
5.790000000000004 14773.892137175148
5.820000000000004 14754.484193067688
5.850000000000004 14738.00315036857
5.880000000000004 14725.78435929724
5.910000000000005 14718.641308872562
5.940000000000005 14716.82195685563
5.970000000000005 14720.024892587862
6.000000000000005 14727.468920554065
6.030000000000006 14738.005436351474
6.060000000000006 14750.259034231958
6.090000000000006 14762.780402032424
6.120000000000006 14774.19527367727
6.150000000000007 14783.335008612048
6.180000000000007 14789.33718708257
6.210000000000007 14791.708518165786
6.240000000000007 14790.346681548981
6.270000000000008 14785.522025011987
6.300000000000008 14777.823963976736
6.330000000000008 14768.079882126516
6.360000000000008 14757.25673306054
6.390000000000009 14746.356238872235
6.420000000000009 14736.314414074335
6.450000000000009 14727.914843358503
6.480000000000009 14721.723165204112
6.51000000000001 14718.047433079399
6.54000000000001 14716.926667016867
6.57000000000001 14718.145974883859
6.60000000000001 14721.275500438624
6.6300000000000106 14725.727630228748
6.660000000000011 14730.824529789359
6.690000000000011 14735.86980272248
6.720000000000011 14740.216600891936
6.7500000000000115 14743.326427156904
6.780000000000012 14744.813399653332
6.810000000000012 14744.471174682189
6.840000000000012 14742.280637405504
6.8700000000000125 14738.399246911546
6.900000000000013 14733.13406591976
6.930000000000013 14726.90226482894
6.960000000000013 14720.184152722433
6.9900000000000135 14713.473324470178
7.020000000000014 14707.228877813333
7.050000000000014 14701.833961271348
7.080000000000014 14697.564056707488
7.1100000000000145 14694.567450232622
7.140000000000015 14692.858561590496
7.170000000000015 14692.324360401546
7.200000000000015 14692.74269692266
7.2300000000000155 14693.809552059347
7.260000000000016 14695.172562335953
7.290000000000016 14696.467270792786
7.320000000000016 14697.352506012552
7.3500000000000165 14697.541594258879
7.380000000000017 14696.826799942606
7.410000000000017 14695.09495302313
7.440000000000017 14692.333469224353
7.4700000000000175 14688.626469736038
7.500000000000018 14684.14213842716
7.530000000000018 14679.112236389588
7.560000000000018 14673.806180165066
7.5900000000000185 14668.503396554435
7.620000000000019 14663.46620245623
7.650000000000019 14658.91557734158
7.680000000000019 14655.011734108688
7.7100000000000195 14651.84102114598
7.74000000000002 14649.410194079834
7.77000000000002 14647.64911617992
7.80000000000002 14646.420743269695
7.8300000000000205 14645.53740121868
7.860000000000021 14644.781374742042
7.890000000000021 14643.927591186362
7.920000000000021 14642.766148308794
7.9500000000000215 14641.122761156555
7.980000000000022 14638.8745573378
8.010000000000021 14635.960310861967
8.04000000000002 14632.384148501207
8.07000000000002 14628.212713043054
8.10000000000002 14623.566020636265
8.130000000000019 14618.603353917695
8.160000000000018 14613.50570088219
8.190000000000017 14608.456268322592
8.220000000000017 14603.621660637009
8.250000000000016 14599.135708502163
8.280000000000015 14595.08698824891
8.310000000000015 14591.511609492532
8.340000000000014 14588.391410054897
8.370000000000013 14585.657648760634
8.400000000000013 14583.19975729839
8.430000000000012 14580.87829315104
8.460000000000012 14578.540632523971
8.49000000000001 14576.03728590712
8.52000000000001 14573.238014155644
8.55000000000001 14570.0447396309
8.580000000000009 14566.400427909011
8.610000000000008 14562.293439036801
8.640000000000008 14557.757176793488
8.670000000000007 14552.864694838128
8.700000000000006 14547.71987731132
8.730000000000006 14542.445747049875
8.760000000000005 14537.170388342418
8.790000000000004 14532.013051858798
8.820000000000004 14527.07195755304
8.850000000000003 14522.4143952953
8.880000000000003 14518.070893165479
8.910000000000002 14514.033082172304
8.940000000000001 14510.256129014515
8.97 14506.665367443251
9.0 14503.16482606843
9.03 14499.648029041973
9.059999999999999 14496.010212011532
9.089999999999998 14492.15976966588
9.119999999999997 14488.027739571095
9.149999999999997 14483.574574487959
9.179999999999996 14478.793410480568
9.209999999999996 14473.70930475643
9.239999999999995 14468.375020763482
9.269999999999994 14462.863697729284
9.299999999999994 14457.260992021951
9.329999999999993 14451.653558330072
9.359999999999992 14446.11994166017
9.389999999999992 14440.722644150255
9.419999999999991 14435.502229051388
9.44999999999999 14430.473469280185
9.47999999999999 14425.62459597001
9.50999999999999 14420.919439624833
9.539999999999988 14416.301901604013
9.569999999999988 14411.703064497067
9.599999999999987 14407.049406723565
9.629999999999987 14402.271231324743
9.659999999999986 14397.309719504643
9.689999999999985 14392.122199450765
9.719999999999985 14386.686165495019
9.749999999999984 14381.00040025408
9.779999999999983 14375.083851747693
9.809999999999983 14368.97156697029
9.839999999999982 14362.711018898455
9.869999999999981 14356.356662709684
9.89999999999998 14349.96344056585
9.92999999999998 14343.579998925601
9.95999999999998 14337.244239094143
9.989999999999979 14330.980149740679
10.019999999999978 13129.305059153614
10.049999999999978 10359.112303627096
10.079999999999977 6457.453788788327
10.109999999999976 1967.8662000174056
10.139999999999976 -2530.395838702888
10.169999999999975 -6495.023242578814
10.199999999999974 -9484.288645889908
10.229999999999974 -11203.855398280491
10.259999999999973 -11532.143700957731
10.289999999999973 -10522.855021236592
10.319999999999972 -8386.211742809523
10.349999999999971 -5452.845760316013
10.37999999999997 -2125.969418572557
10.40999999999997 1171.6663734322058
10.43999999999997 4049.441651988242
10.469999999999969 6193.2093737636205
10.499999999999968 7397.594300537819
10.529999999999967 7583.185023319438
10.559999999999967 6797.494871452641
10.589999999999966 5200.5861839850895
10.619999999999965 3038.0524944662675
10.649999999999965 605.4974656626891
10.679999999999964 -1790.5290599176212
10.709999999999964 -3870.063073181141
10.739999999999963 -5411.220972347362
10.769999999999962 -6272.27501109123
10.799999999999962 -6402.396690789261
10.829999999999961 -5840.711409069921
10.85999999999996 -4704.770925143579
10.88999999999996 -3170.669829422961
10.919999999999959 -1447.8511457932905
10.949999999999958 248.02880854436165
10.979999999999958 1720.8508609820851
11.009999999999957 2815.5047338496543
11.039999999999957 3432.899127699226
11.069999999999956 3537.2452821403485
11.099999999999955 3155.341304915276
11.129999999999955 2368.5632259563204
11.159999999999954 1299.0638532105309
11.189999999999953 92.28048795342374
11.219999999999953 -1101.891005411198
11.249999999999952 -2146.91900788111
11.279999999999951 -2934.4371889265017
11.30999999999995 -3394.5358203174546
11.33999999999995 -3500.7197505582362
11.36999999999995 -3269.40633950498
11.399999999999949 -2754.4932739410165
11.429999999999948 -2038.0420435542042
11.459999999999948 -1218.49655840763
11.489999999999947 -398.00434266735084
11.519999999999946 329.6168689484273
11.549999999999946 888.9335117086539
11.579999999999945 1229.9835778701986
11.609999999999944 1331.8358833878426
11.639999999999944 1202.5154556246757
11.669999999999943 875.6228652925652
11.699999999999942 404.31870414830297
11.729999999999942 -146.39807963756957
11.759999999999941 -708.0854870096418
11.78999999999994 -1216.9109955591346
11.81999999999994 -1620.4719513411758
11.84999999999994 -1882.7145517010488
11.879999999999939 -1986.562243176957
11.909999999999938 -1934.1614909716498
11.939999999999937 -1744.9398333813872
11.969999999999937 -1451.8867618147292
11.999999999999936 -1096.646669162701
12.029999999999935 -724.089674645801
12.059999999999935 -377.0210295051464
12.089999999999934 -91.60678493094272
12.119999999999933 106.03393844219197
12.149999999999933 201.79865553725364
12.179999999999932 194.0518241871671
12.209999999999932 92.65441281437893
12.239999999999931 -83.18762579017533
12.26999999999993 -307.8963355191793
12.29999999999993 -552.9099135468168
12.329999999999929 -790.0685201204293
12.359999999999928 -994.6347777151391
12.389999999999928 -1147.654911803473
12.419999999999927 -1237.4634294803311
12.449999999999926 -1260.2508412947443
12.479999999999926 -1219.7251089547221
12.509999999999925 -1125.995465240037
12.539999999999925 -993.8807559779372
12.569999999999924 -840.8810855974947
12.599999999999923 -685.0668323115262
12.629999999999923 -543.119769689748
12.659999999999922 -428.7191131590552
12.689999999999921 -351.406088879154
12.71999999999992 -315.99529188827876
12.74999999999992 -322.5365048684739
12.77999999999992 -366.77252798653353
12.809999999999919 -440.9900384866291
12.839999999999918 -535.1356842673849
12.869999999999918 -638.0564136063175
12.899999999999917 -738.7265221409539
12.929999999999916 -827.3398652580979
12.959999999999916 -896.1711431394808
12.989999999999915 -940.1462421986101
13.019999999999914 -957.0957754566298
13.049999999999914 -947.7004578671138
13.079999999999913 -915.1667053327001
13.109999999999912 -864.6897819335406
13.139999999999912 -802.7776365273143
13.169999999999911 -736.51436257165
13.19999999999991 -672.8384402819207
13.22999999999991 -617.8990813397716
13.25999999999991 -576.5422669848147
13.289999999999909 -551.9605131152954
13.319999999999908 -545.5210197532383
13.349999999999907 -556.7735201578223
13.379999999999907 -583.6209052338497
13.409999999999906 -622.6270192198019
13.439999999999905 -669.4240166213762
13.469999999999905 -719.176583245374
13.499999999999904 -767.0575529027509
13.529999999999903 -808.6960777040806
13.559999999999903 -840.5578716848247
13.589999999999902 -860.2294540758066
13.619999999999902 -866.5871130826333
13.6499999999999 -859.8392850435243
13.6799999999999 -841.445519486498
13.7099999999999 -813.9229238425356
13.739999999999899 -780.5610125058906
13.769999999999898 -745.0764059974355
13.799999999999898 -711.2380557611573
13.829999999999897 -682.5017364622759
13.859999999999896 -661.6842498081571
13.889999999999896 -650.7071739850767
13.919999999999895 -650.436909855197
13.949999999999894 -660.6324633001011
13.979999999999894 -680.0044989791472
14.009999999999893 -706.37657011323
14.039999999999893 -736.9321046910799
14.069999999999892 -768.5202623627039
14.099999999999891 -797.9864295751637
14.12999999999989 -822.497008240521
14.15999999999989 -839.8234661680538
14.18999999999989 -848.5535013101686
14.219999999999889 -848.2146303815177
14.249999999999888 -839.2982620093004
14.279999999999887 -823.1790260765181
14.309999999999887 -801.9437792091386
14.339999999999886 -778.1505059905433
14.369999999999886 -754.5414403623055
14.399999999999885 -733.7444639781662
14.429999999999884 -717.9954346701052
14.459999999999884 -708.9105546394884
14.489999999999883 -707.3310418155022
14.519999999999882 -713.2562924926465
14.549999999999882 -725.8698625634801
14.579999999999881 -743.6536610448151
14.60999999999988 -764.5760807039946
14.63999999999988 -786.3308368951404
14.66999999999988 -806.5970747935473
14.699999999999878 -823.2930929401473
14.729999999999878 -834.7961847679587
14.759999999999877 -840.1051667353654
14.789999999999877 -838.9282575192046
14.819999999999876 -831.6908919507937
14.849999999999875 -819.4629905902814
14.879999999999875 -803.8173216756397
14.909999999999874 -786.6366028835653
14.939999999999873 -769.8925872360904
14.969999999999873 -755.4248021238959
14.999999999999872 -744.7420141873115
15.029999999999871 -738.8676228800119
15.05999999999987 -738.2439876121932
15.08999999999987 -742.7050576778232
15.11999999999987 -751.5203693880089
15.149999999999869 -763.5005642506469
15.179999999999868 -777.1490184866221
15.209999999999868 -790.8430489717061
15.239999999999867 -803.0218956089991
15.269999999999866 -812.3560689435926
15.299999999999866 -817.8855128598258
15.329999999999865 -819.1129352910393
15.359999999999864 -816.0409278895131
15.389999999999864 -809.1500506703202
15.419999999999863 -799.3240533947761
15.449999999999863 -787.7337556012412
15.479999999999862 -775.6934131822604
15.509999999999861 -764.5060167788733
15.53999999999986 -755.3182289330084
15.56999999999986 -748.9987210837711
15.59999999999986 -746.0541374181583
15.629999999999859 -746.5869234312538
15.659999999999858 -750.3043521803213
15.689999999999857 -756.5697749680942
15.719999999999857 -764.4902859507174
15.749999999999856 -773.0276394541291
15.779999999999855 -781.124013695389
15.809999999999855 -787.8229687094
15.839999999999854 -792.3718308550326
15.869999999999854 -794.2961615640943
15.899999999999853 -793.44030964296
15.929999999999852 -789.9692001401683
15.959999999999852 -784.3334937348336
15.989999999999851 -777.2030099279789
16.01999999999985 -769.3801701003019
16.04999999999985 -761.7039503842229
16.079999999999853 -754.9526026443365
16.109999999999854 -749.7611696637709
16.139999999999855 -746.5582941647177
16.169999999999856 -745.5296996430598
