# Results for "element" with Id # 114564 for search config "initial" at position: x0: 24.7105263158; y0: 0; z0: 249.9998
# time PRESSURE
0.03 1335.9996609126686
0.06 3820.5084954119693
0.09 7175.525614283695
0.12 11058.377816498327
0.15 15094.072094548988
0.18 18909.71220946643
0.21 22167.582428638176
0.24 24594.048219299144
0.27 26001.89914390737
0.30000000000000004 26304.317659908775
0.33000000000000007 25519.35476548868
0.3600000000000001 23764.627100890946
0.3900000000000001 21242.868412618842
0.42000000000000015 18219.877066045497
0.4500000000000002 14997.176681030178
0.4800000000000002 11882.234501697243
0.5100000000000002 9159.276127188954
0.5400000000000003 7063.5669221402895
0.5700000000000003 5761.533651743839
0.6000000000000003 5338.360508035496
0.6300000000000003 5793.833458148642
0.6600000000000004 7046.341349070981
0.6900000000000004 8944.182439536704
0.7200000000000004 11282.724389723486
0.7500000000000004 13825.561083804772
0.7800000000000005 16327.595612086268
0.8100000000000005 18557.936746608742
0.8400000000000005 20320.606540088498
0.8700000000000006 21471.301754875654
0.9000000000000006 21928.822612274933
0.9300000000000006 21680.26198209804
0.9600000000000006 20779.620999738796
0.9900000000000007 19340.1368529398
1.0200000000000007 17521.215780887786
1.0500000000000007 15511.398553001942
1.0800000000000007 13509.160352695004
1.1100000000000008 11703.523966050136
1.1400000000000008 10256.414424727596
1.1700000000000008 9288.419890240923
1.2000000000000008 8869.189300689737
1.2300000000000009 9013.163381844575
1.260000000000001 9680.764477188317
1.290000000000001 10784.64351742246
1.320000000000001 12200.128150329345
1.350000000000001 13778.68772690466
1.380000000000001 15363.024904748376
1.410000000000001 16802.329965078265
1.440000000000001 17966.283795098338
1.470000000000001 18756.559031692184
1.500000000000001 19114.834999640705
1.5300000000000011 19026.68707063958
1.5600000000000012 18521.118074942853
1.5900000000000012 17665.918741751877
1.6200000000000012 16559.45632722057
1.6500000000000012 15319.824270600664
1.6800000000000013 14072.527625139088
1.7100000000000013 12937.983714916003
1.7400000000000013 12020.084638409051
1.7700000000000014 11396.903445306052
1.8000000000000014 11114.354618563524
1.8300000000000014 11183.282818067264
1.8600000000000014 11580.087987178436
1.8900000000000015 12250.647537819916
1.9200000000000015 13116.991085351296
1.9500000000000015 14085.954171798196
1.9800000000000015 15058.889366921518
2.0100000000000016 15941.459260546406
2.0400000000000014 16652.57070860691
2.070000000000001 17131.62877218041
2.100000000000001 17343.48011647054
2.130000000000001 17280.6594762894
2.1600000000000006 16962.83017828736
2.1900000000000004 16433.588565570877
2.22 15755.060245128472
2.25 15000.92019372986
2.28 14248.602566551237
2.3099999999999996 13571.51358406514
2.3399999999999994 13032.023179022162
2.369999999999999 12675.893290295407
2.399999999999999 12528.621524911789
2.429999999999999 12593.962467333198
2.4599999999999986 12854.65849274693
2.4899999999999984 13275.194082649603
2.5199999999999982 13806.198947691886
2.549999999999998 14389.986526169758
2.579999999999998 14966.6303071096
2.6099999999999977 15479.958476679716
2.6399999999999975 15882.885150765402
2.6699999999999973 16141.587554437407
2.699999999999997 16238.173104339734
2.729999999999997 16171.644271067807
2.7599999999999967 15957.145767480231
2.7899999999999965 15623.649273868512
2.8199999999999963 15210.381492051973
2.849999999999996 14762.412066121306
2.879999999999996 14325.883757424026
2.9099999999999957 13943.379647194815
2.9399999999999955 13649.883517479491
2.9699999999999953 13469.706479981116
2.999999999999995 13414.636260383826
3.029999999999995 13483.429419456483
3.0599999999999947 13662.62578341814
3.0899999999999945 13928.534876537542
3.1199999999999943 14250.134133397134
3.149999999999994 14592.54342910595
3.179999999999994 14920.700168415326
3.2099999999999937 15202.858883413119
3.2399999999999936 15413.57594788228
3.2699999999999934 15535.908167637255
3.299999999999993 15562.646091149052
3.329999999999993 15496.508564795164
3.3599999999999928 15349.333094724392
3.3899999999999926 15140.395199989045
3.4199999999999924 14894.072385294266
3.449999999999992 14637.12230080997
3.479999999999992 14395.870241839706
3.509999999999992 14193.59439220553
3.5399999999999916 14048.361673960442
3.5699999999999914 13971.507529625876
3.599999999999991 13966.877135549727
3.629999999999991 14030.862082868847
3.659999999999991 14153.184361877931
3.6899999999999906 14318.306956764949
3.7199999999999904 14507.293508278131
3.7499999999999902 14699.904844940333
3.77999999999999 14876.707695366993
3.80999999999999 15020.982438547642
3.8399999999999896 15120.24873795587
3.8699999999999894 15167.276632186413
3.8999999999999893 15160.51007481838
3.929999999999989 15103.893468134502
3.959999999999989 15006.15275696373
3.9899999999999887 14879.635083326859
4.019999999999989 14738.850221129942
4.049999999999989 14598.878714088056
4.079999999999989 14473.815963293791
4.10999999999999 14375.407967985197
4.13999999999999 14312.005806272758
4.16999999999999 14287.926019652168
4.19999999999999 14303.25763909029
4.229999999999991 14354.10865136643
4.259999999999991 14433.240802092976
4.289999999999991 14531.004647278309
4.319999999999991 14636.46206890753
4.349999999999992 14738.570962431564
4.379999999999992 14827.307990026457
4.409999999999992 14894.619307821347
4.439999999999992 14935.113232756394
4.469999999999993 14946.44031618963
4.499999999999993 14929.341437701592
4.529999999999993 14887.379647548058
4.559999999999993 14826.402367852981
4.589999999999994 14753.805702966172
4.619999999999994 14677.687838507063
4.649999999999994 14605.984588376714
4.679999999999994 14545.676163482778
4.709999999999995 14502.141269447264
4.739999999999995 14478.714946202661
4.769999999999995 14476.482093226741
4.799999999999995 14494.312521751173
4.829999999999996 14529.118709964181
4.859999999999996 14576.295346349874
4.889999999999996 14630.284397920612
4.919999999999996 14685.200004208502
4.949999999999997 14735.445729580852
4.979999999999997 14776.261957359293
5.009999999999997 14804.152350302196
5.039999999999997 14817.154035150274
5.069999999999998 14814.934386100304
5.099999999999998 14798.716226023163
5.129999999999998 14771.050165593937
5.159999999999998 14735.467813949148
5.189999999999999 14696.05881756427
5.219999999999999 14657.01984500762
5.249999999999999 14622.223291133883
5.279999999999999 14594.848025449446
5.31 14577.105416086102
5.34 14570.08200585669
5.37 14573.706917216465
5.4 14586.838598479404
5.430000000000001 14607.453646158272
5.460000000000001 14632.911808167297
5.490000000000001 14660.264824011309
5.520000000000001 14686.574920433632
5.550000000000002 14709.20993257082
5.580000000000002 14726.086863652927
5.610000000000002 14735.843058536764
5.640000000000002 14737.922654221496
5.670000000000003 14732.575727325053
5.700000000000003 14720.776340101002
5.730000000000003 14704.073730766784
5.760000000000003 14684.39623261531
5.790000000000004 14663.831283543454
5.820000000000004 14644.405098346213
5.850000000000004 14627.8843384752
5.880000000000004 14615.618051436097
5.910000000000005 14608.432797820935
5.940000000000005 14606.587541522858
5.970000000000005 14609.788702565776
6.000000000000005 14617.259074136135
6.030000000000006 14627.849994789773
6.060000000000006 14640.182272323025
6.090000000000006 14652.799782141083
6.120000000000006 14664.319447549944
6.150000000000007 14673.563017827662
6.180000000000007 14679.65885228393
6.210000000000007 14682.105838441235
6.240000000000007 14680.79600238423
6.270000000000008 14675.996732209083
6.300000000000008 14668.297298097506
6.330000000000008 14658.527590788102
6.360000000000008 14647.65926244199
6.390000000000009 14636.700192995952
6.420000000000009 14626.593169816693
6.450000000000009 14618.128288650565
6.480000000000009 14611.87671639544
6.51000000000001 14608.150521791325
6.54000000000001 14606.990853343232
6.57000000000001 14608.18303813677
6.60000000000001 14611.295485234976
6.6300000000000106 14615.736826710838
6.660000000000011 14620.82420682385
6.690000000000011 14625.855695236045
6.720000000000011 14630.179142692901
6.7500000000000115 14633.2515617628
6.780000000000012 14634.683899948224
6.810000000000012 14634.267916443961
6.840000000000012 14631.983919406204
6.8700000000000125 14627.989984560496
6.900000000000013 14622.594977745315
6.930000000000013 14616.21895296412
6.960000000000013 14609.345748096825
6.9900000000000135 14602.472630936505
7.020000000000014 14596.062164663686
7.050000000000014 14590.500232681923
7.080000000000014 14586.063936727265
7.1100000000000145 14582.901821609135
7.140000000000015 14581.02734475271
7.170000000000015 14580.32560206472
7.200000000000015 14580.571959142866
7.2300000000000155 14581.459642250884
7.260000000000016 14582.63369818408
7.290000000000016 14583.727469422116
7.320000000000016 14584.39807052652
7.3500000000000165 14584.357720761876
7.380000000000017 14583.398251292321
7.410000000000017 14581.406671850735
7.440000000000017 14578.371218177945
7.4700000000000175 14574.377174439705
7.500000000000018 14569.593820284157
7.530000000000018 14564.253929583503
7.560000000000018 14558.628245745771
7.5900000000000185 14552.99771531985
7.620000000000019 14547.625949089033
7.650000000000019 14542.73466333666
7.680000000000019 14538.483969276105
7.7100000000000195 14534.959461401953
7.74000000000002 14532.166914247176
7.77000000000002 14530.035224457608
7.80000000000002 14528.426585043837
7.8300000000000205 14527.153141362116
7.860000000000021 14525.997513298116
7.890000000000021 14524.735458527393
7.920000000000021 14523.158419190693
7.9500000000000215 14521.093901184537
7.980000000000022 14518.421120764775
8.010000000000021 14515.081159563368
8.04000000000002 14511.080684304428
8.07000000000002 14506.489013327462
8.10000000000002 14501.428719727053
8.130000000000019 14496.061390514631
8.160000000000018 14490.570177466396
8.190000000000017 14485.140594840974
8.220000000000017 14479.941639413584
8.250000000000016 14475.109470097192
8.280000000000015 14470.73514527918
8.310000000000015 14466.857127025152
8.340000000000014 14463.459361495708
8.370000000000013 14460.475199858007
8.400000000000013 14457.796350921479
8.430000000000012 14455.285932608323
8.460000000000012 14452.794402536238
8.49000000000001 14450.175926154137
8.52000000000001 14447.304178073526
8.55000000000001 14444.084878987018
8.580000000000009 14440.464738023116
8.610000000000008 14436.435857666835
8.640000000000008 14432.03583686042
8.670000000000007 14427.341511950684
8.700000000000006 14422.460195223835
8.730000000000006 14417.517750553981
8.760000000000005 14412.64488343001
8.790000000000004 14407.963230092111
8.820000000000004 14403.572439110703
8.850000000000003 14399.540175984828
8.880000000000003 14395.896227747537
8.910000000000002 14392.63083876515
8.940000000000001 14389.697060724682
8.97 14387.01687900411
9.0 14384.490659541063
9.03 14382.008450782934
9.059999999999999 14379.46175419665
9.089999999999998 14376.75444631292
9.119999999999997 14373.811988961832
9.149999999999997 14370.588192357576
9.179999999999996 14367.068447685062
9.209999999999996 14363.26887660316
9.239999999999995 14359.232626502153
9.269999999999994 14355.022918713526
9.299999999999994 14350.715052220996
9.329999999999993 14346.386638825756
9.359999999999992 14342.108863703934
9.389999999999992 14337.937504814123
9.419999999999991 14333.906899915944
9.44999999999999 14330.02654948591
9.47999999999999 14326.280395583444
9.50999999999999 14322.628251970447
9.539999999999988 14319.008853917403
9.569999999999988 14315.346645486374
9.599999999999987 14311.559614192562
9.629999999999987 14307.56704164989
9.659999999999986 14303.294768093656
9.689999999999985 14298.678543778751
9.719999999999985 14293.669498630406
9.749999999999984 14288.235999583305
9.779999999999983 14282.36392081686
9.809999999999983 14276.053617681608
9.839999999999982 14269.323637663767
9.869999999999981 14262.210586913608
9.89999999999998 14254.763589294824
9.92999999999998 14247.036514690915
9.95999999999998 14239.077068222277
9.989999999999979 14230.918627381438
10.019999999999978 13043.872032074722
10.049999999999978 10308.360192328764
10.079999999999977 6452.680628300723
10.109999999999976 2010.7915007683066
10.139999999999976 -2446.555344243697
10.169999999999975 -6383.067524518156
10.199999999999974 -9359.866992636598
10.229999999999974 -11082.397840283247
10.259999999999973 -11426.491109001658
10.289999999999973 -10441.912154688547
10.319999999999972 -8334.605342185154
10.349999999999971 -5431.351056840536
10.37999999999997 -2132.350156525599
10.40999999999997 1141.7431882453172
10.43999999999997 4001.603777121087
10.469999999999969 6133.737223449014
10.499999999999968 7332.871135498357
10.529999999999967 7519.148223405946
10.559999999999967 6739.061587755931
10.589999999999966 5151.113559432288
10.619999999999965 2998.9166511593485
10.649999999999965 575.8874914029537
10.679999999999964 -1813.523470492788
10.709999999999964 -3891.0409813334554
10.739999999999963 -5435.776708282129
10.769999999999962 -6306.128950580421
10.799999999999962 -6450.501621129255
10.829999999999961 -5906.498440834697
10.85999999999996 -4789.667558089734
10.88999999999996 -3273.9565954739014
10.919999999999959 -1566.8558457876989
10.949999999999958 117.45484253329558
10.979999999999958 1583.6756802803968
11.009999999999957 2676.7979135610053
11.039999999999957 3297.168395869102
11.069999999999956 3407.918472692299
11.099999999999955 3034.4527467742655
11.129999999999955 2256.6566782864465
11.159999999999954 1195.304735085499
11.189999999999953 -5.265439566619705
11.219999999999953 -1195.8688596908512
11.249999999999952 -2240.249335415023
11.279999999999951 -3029.893110382124
11.30999999999995 -3494.3844925104213
11.33999999999995 -3606.4650810711873
11.36999999999995 -3381.6541435672493
11.399999999999949 -2872.939871214844
11.429999999999948 -2161.578806740043
11.459999999999948 -1345.4093722086784
11.489999999999947 -526.2338206474774
11.519999999999946 202.1929822990371
11.549999999999946 764.2338269457837
11.579999999999945 1109.5058774279664
11.609999999999944 1216.50881614944
11.639999999999944 1092.6354196897282
11.669999999999943 770.87684361918
11.699999999999942 303.88540240649127
11.729999999999942 -243.68646999298622
11.759999999999941 -803.5548347856015
11.78999999999994 -1311.8472705420518
11.81999999999994 -1715.939356125519
11.84999999999994 -1979.4131919989345
11.879999999999939 -2084.7458725396327
11.909999999999938 -2033.6157026636374
11.939999999999937 -1845.0290133206472
11.969999999999937 -1551.65207783586
11.999999999999936 -1194.9306161057693
12.029999999999935 -819.675727363996
12.059999999999935 -468.77695156195034
12.089999999999934 -178.60344529015356
12.119999999999933 24.44347025760491
12.149999999999933 125.9436327817805
12.179999999999932 123.94946440972568
12.209999999999932 28.050586766690238
12.239999999999931 -142.7438305216751
12.26999999999993 -362.96264891515375
12.29999999999993 -604.0533265077225
12.329999999999929 -837.7677552508579
12.359999999999928 -1039.2088723483034
12.389999999999928 -1189.2240355544336
12.419999999999927 -1275.939386390009
12.449999999999926 -1295.356395169411
12.479999999999926 -1251.033939036563
12.509999999999925 -1152.9889089931858
12.539999999999925 -1016.0122340056048
12.569999999999924 -857.6433533295027
12.599999999999923 -696.0496940056414
12.629999999999923 -548.0547946576677
12.659999999999922 -427.50384939139485
12.689999999999921 -344.10624947524536
12.71999999999992 -302.8262853546189
12.74999999999992 -303.8282005273653
12.77999999999992 -342.9288778518886
12.809999999999919 -412.4458330085507
12.839999999999918 -502.31309916296016
12.869999999999918 -601.3268820763909
12.899999999999917 -698.3825695524108
12.929999999999916 -783.5822615217112
12.959999999999916 -849.1115495018848
12.989999999999915 -889.8214769538463
13.019999999999914 -903.4904788994281
13.049999999999914 -890.7754307729977
13.079999999999913 -854.889959986044
13.109999999999912 -801.0654674024152
13.139999999999912 -735.8678374244971
13.169999999999911 -666.451047994123
13.19999999999991 -599.8249528241652
13.22999999999991 -542.2015249191958
13.25999999999991 -498.4725337812565
13.289999999999909 -471.85741046356776
13.319999999999908 -463.7281009295383
13.349999999999907 -473.6161366798164
13.379999999999907 -499.38638432585964
13.409999999999906 -537.5506437470774
13.439999999999905 -583.6829529217379
13.469999999999905 -632.8909607783457
13.499999999999904 -680.2986593466891
13.529999999999903 -721.4986566464996
13.559999999999903 -752.9347436451409
13.589999999999902 -772.186499521347
13.619999999999902 -778.1377519797895
13.6499999999999 -771.0170443472712
13.6799999999999 -752.3131714722649
13.7099999999999 -724.5774641098078
13.739999999999899 -691.133079798946
13.769999999999898 -655.724543875446
13.799999999999898 -622.1401429887223
13.829999999999897 -593.8443848830116
13.859999999999896 -573.6526993903019
13.889999999999896 -563.4765230246632
13.919999999999895 -564.1643657419858
13.949999999999894 -575.4532501335626
13.979999999999894 -596.0315268291879
14.009999999999893 -623.702869016138
14.039999999999893 -655.634726118943
14.069999999999892 -688.6674637130775
14.099999999999891 -719.6447141124851
14.12999999999989 -745.738722045011
14.15999999999989 -764.733781340359
14.18999999999989 -775.2335411736644
14.219999999999889 -776.7821650010079
14.249999999999888 -769.8874950033351
14.279999999999887 -755.9378183824354
14.309999999999887 -737.0290096120743
14.339999999999886 -715.7223756141586
14.369999999999886 -694.756703994073
14.399999999999885 -676.7500114832706
14.429999999999884 -663.9222027084538
14.459999999999884 -657.8693017378955
14.489999999999883 -659.409820215518
14.519999999999882 -668.5203558608678
14.549999999999882 -684.3636656927174
14.579999999999881 -705.4049002766235
14.60999999999988 -729.5982907912091
14.63999999999988 -754.6243033928929
14.66999999999988 -778.1519889083836
14.699999999999878 -798.0920070911885
14.729999999999878 -812.813683434822
14.759999999999877 -821.307487985094
14.789999999999877 -823.2731266793385
14.819999999999876 -819.1271726553208
14.849999999999875 -809.9298847957451
14.879999999999875 -797.2427705184633
14.909999999999874 -782.9352223610024
14.939999999999873 -768.9623234911754
14.969999999999873 -757.1450460703309
14.999999999999872 -748.9743863594963
15.029999999999871 -745.4590038322793
15.05999999999987 -747.0293252810133
15.08999999999987 -753.5081956611778
15.11999999999987 -764.155761821456
15.149999999999869 -777.7773810180779
15.179999999999868 -792.8753918790254
15.209999999999868 -807.8317767176175
15.239999999999867 -821.0957764046713
15.269999999999866 -831.3471587217034
15.299999999999866 -837.6334094261668
15.329999999999865 -839.4648374559428
15.359999999999864 -836.8522890063939
15.389999999999864 -830.2852797940651
15.419999999999863 -820.6564352840351
15.449999999999863 -809.1461927510932
15.479999999999862 -797.0793828658334
15.509999999999861 -785.7698180970515
15.53999999999986 -776.3755810746007
15.56999999999986 -769.7782160791296
15.59999999999986 -766.4978674741758
15.629999999999859 -766.6492186326102
15.659999999999858 -769.9526670896283
15.689999999999857 -775.7837610709059
15.719999999999857 -783.2605182341533
15.749999999999856 -791.3530731840326
15.779999999999855 -799.0134792546755
15.809999999999855 -805.2981510582939
15.839999999999854 -809.467304478175
15.869999999999854 -811.0569012732558
15.899999999999853 -809.9188911729143
15.929999999999852 -806.2245052474105
15.959999999999852 -800.4293727466745
15.989999999999851 -793.2045954959965
16.01999999999985 -785.349991474839
16.04999999999985 -777.700285374417
16.079999999999853 -771.0266708152564
16.109999999999854 -765.9574265204767
16.139999999999855 -762.9165360774894
16.169999999999856 -762.0881816121139
