# Results for "element" with Id # 168259 for search config "initial" at position: x0: -21.4157894737; y0: 0; z0: 249.9998
# time PRESSURE
0.03 1362.1580049128656
0.06 3895.4637538681936
0.09 7316.6571715782575
0.12 11276.512158559759
0.15 15392.711648349825
0.18 19284.833207135594
0.21 22608.04512026552
0.24 25082.64721295443
0.27 26517.031171584862
0.30000000000000004 26822.159593959164
0.33000000000000007 26016.348576840115
0.3600000000000001 24219.986598802956
0.3900000000000001 21640.78861496056
0.42000000000000015 18551.150145781754
0.4500000000000002 15260.001383661092
0.4800000000000002 12082.130229933793
0.5100000000000002 9308.149352552708
0.5400000000000003 7178.096098230246
0.5700000000000003 5861.117012407294
0.6000000000000003 5442.89926742911
0.6300000000000003 5921.607517094888
0.6600000000000004 7212.191124575951
0.6900000000000004 9158.152115496416
0.7200000000000004 11549.266018697941
0.7500000000000004 14143.347955747946
0.7800000000000005 16689.943344616313
0.8100000000000005 18953.778388326602
0.8400000000000005 20735.911719660344
0.8700000000000006 21890.775575487878
0.9000000000000006 22337.67905957465
0.9300000000000006 22065.85288006706
0.9600000000000006 21132.72079847467
0.9900000000000007 19655.73875448853
1.0200000000000007 17798.77129957349
1.0500000000000007 15754.51606941715
1.0800000000000007 13724.851140070068
1.1100000000000008 11901.134330123936
1.1400000000000008 10446.404435351995
1.1700000000000008 9481.144703588729
1.2000000000000008 9073.816211150508
1.2300000000000009 9236.822498234536
1.260000000000001 9927.994970746431
1.290000000000001 11057.158371487916
1.320000000000001 12496.889661313642
1.350000000000001 14096.256884243136
1.380000000000001 15696.12557331481
1.410000000000001 17144.5522743538
1.440000000000001 18310.84241766669
1.470000000000001 19097.022432047703
1.500000000000001 19445.750306364305
1.5300000000000011 19344.0437634999
1.5600000000000012 18822.615224911893
1.5900000000000012 17951.027829166684
1.6200000000000012 16829.294401628493
1.6500000000000012 15576.872064806736
1.6800000000000013 14320.23981683108
1.7100000000000013 13180.34402212656
1.7400000000000013 12261.157486145406
1.7700000000000014 11640.427492910672
1.8000000000000014 11363.414255630672
1.8300000000000014 11440.080784508544
1.8600000000000014 11845.830964594697
1.8900000000000015 12525.541585697318
1.9200000000000015 13400.333847682714
1.9500000000000015 14376.300845938433
1.9800000000000015 15354.264129120093
2.0100000000000016 16239.582854665918
2.0400000000000014 16951.078359360945
2.070000000000001 17428.259849569877
2.100000000000001 17636.229322518517
2.130000000000001 17567.888459354537
2.1600000000000006 17243.343026060364
2.1900000000000004 16706.67867232333
2.22 16020.533374772585
2.25 15259.095358668328
2.28 14500.288011181612
2.3099999999999996 13817.953003569834
2.3399999999999994 13274.80673502276
2.369999999999999 12916.831411946448
2.399999999999999 12769.586131778964
2.429999999999999 12836.707092837341
2.4599999999999986 13100.636295840985
2.4899999999999984 13525.39507828265
2.5199999999999982 14061.029306295108
2.549999999999998 14649.208523627285
2.579999999999998 15229.374433786592
2.6099999999999977 15744.809733472215
2.6399999999999975 16148.035261365309
2.6699999999999973 16405.035415476836
2.699999999999997 16497.948954901698
2.729999999999997 16426.0295224443
2.7599999999999967 16204.860572442745
2.7899999999999965 15863.98535906557
2.8199999999999963 15443.264366281479
2.849999999999996 14988.386721185618
2.879999999999996 14546.027897296295
2.9099999999999957 14159.157495637113
2.9399999999999955 13862.96010355628
2.9699999999999953 13681.74626048055
2.999999999999995 13627.110481827338
3.029999999999995 13697.454423277844
3.0599999999999947 13878.849717484582
3.0899999999999945 14147.083070328983
3.1199999999999943 14470.616556231482
3.149999999999994 14814.120152217301
3.179999999999994 15142.19436296184
3.2099999999999937 15422.902076940038
3.2399999999999936 15630.767252131482
3.2699999999999934 15748.968480916523
3.299999999999993 15770.550431823558
3.329999999999993 15698.582623470435
3.3599999999999928 15545.304977093589
3.3899999999999926 15330.399207778823
3.4199999999999924 15078.607090347037
3.449999999999992 14816.970419250274
3.479999999999992 14571.991692190835
3.509999999999992 14367.006257996234
3.5399999999999916 14220.01931137704
3.5699999999999914 14142.199981962578
3.599999999999991 14137.147695069973
3.629999999999991 14200.96112414348
3.659999999999991 14323.057432246105
3.6899999999999906 14487.617255378731
3.7199999999999904 14675.474008855326
3.7499999999999902 14866.232393584374
3.77999999999999 15040.389555464226
3.80999999999999 15181.244977019109
3.8399999999999896 15276.418458987499
3.8699999999999894 15318.845256408691
3.8999999999999893 15307.17749256551
3.929999999999989 15245.585395568562
3.959999999999989 15143.012777921876
3.9899999999999887 15011.993443522264
4.019999999999989 14867.174305680452
4.049999999999989 14723.711747591691
4.079999999999989 14595.711435179524
4.10999999999999 14494.867223597044
4.13999999999999 14429.425404680735
4.16999999999999 14403.559969699512
4.19999999999999 14417.19775224209
4.229999999999991 14466.283840301292
4.259999999999991 14543.434252547993
4.289999999999991 14638.885708212638
4.319999999999991 14741.628476947328
4.349999999999992 14840.596300067402
4.379999999999992 14925.789044252575
4.409999999999992 14989.21819287001
4.439999999999992 15025.589959959336
4.469999999999993 15032.67280581977
4.499999999999993 15011.331500477683
4.529999999999993 14965.245174898275
4.559999999999993 14900.35730307512
4.589999999999994 14824.13062424366
4.619999999999994 14744.694995780726
4.649999999999994 14669.981704558177
4.679999999999994 14606.933050292999
4.709999999999995 14560.862823502906
4.739999999999995 14535.023035642673
4.769999999999995 14530.407776933233
4.799999999999995 14545.798988903642
4.829999999999996 14578.034075645654
4.859999999999996 14622.452940721205
4.889999999999996 14673.467927226562
4.919999999999996 14725.190483828857
4.949999999999997 14772.047100546162
4.979999999999997 14809.32261829646
5.009999999999997 14833.580461627002
5.039999999999997 14842.92517192215
5.069999999999998 14837.09117099019
5.099999999999998 14817.360498921664
5.129999999999998 14786.328950614316
5.159999999999998 14747.555072803128
5.189999999999999 14705.1352689923
5.219999999999999 14663.25323758703
5.249999999999999 14625.75123137701
5.279999999999999 14595.765116771352
5.31 14575.456385315234
5.34 14565.861198721559
5.37 14566.863124402189
5.4 14577.284535373534
5.430000000000001 14595.078793016062
5.460000000000001 14617.597091681997
5.490000000000001 14641.89730138758
5.520000000000001 14665.060842541621
5.550000000000002 14684.484511035234
5.580000000000002 14698.119946151517
5.610000000000002 14704.640510243364
5.640000000000002 14703.523460338809
5.670000000000003 14695.045382372477
5.700000000000003 14680.197850537608
5.730000000000003 14660.537145676675
5.760000000000003 14637.987865465451
5.790000000000004 14614.623847842357
5.820000000000004 14592.450024634474
5.850000000000004 14573.207280850154
5.880000000000004 14558.217508971567
5.910000000000005 14548.281835078937
5.940000000000005 14543.638282109361
5.970000000000005 14543.978866872814
6.000000000000005 14548.5195710053
6.030000000000006 14556.112880692584
6.060000000000006 14565.388350047337
6.090000000000006 14574.904487515205
6.120000000000006 14583.296525945523
6.150000000000007 14589.405769985297
6.180000000000007 14592.379014576965
6.210000000000007 14591.730454349248
6.240000000000007 14587.362777949149
6.270000000000008 14579.54836664665
6.300000000000008 14568.875579435324
6.330000000000008 14556.168317778587
6.360000000000008 14542.388559541576
6.390000000000009 14528.532005413954
6.420000000000009 14515.52804269955
6.450000000000009 14504.153721138111
6.480000000000009 14494.968986597287
6.51000000000001 14488.277789512504
6.54000000000001 14484.117311040802
6.57000000000001 14482.273552360784
6.60000000000001 14482.319808152632
6.6300000000000106 14483.672351446317
6.660000000000011 14485.657907381164
6.690000000000011 14487.584825225003
6.720000000000011 14488.811100657298
6.7500000000000115 14488.80259218192
6.780000000000012 14487.176777936213
6.810000000000012 14483.728889426664
6.840000000000012 14478.43944664387
6.8700000000000125 14471.46359864876
6.900000000000013 14463.105148003642
6.930000000000013 14453.777984665609
6.960000000000013 14443.959427839634
6.9900000000000135 14434.140613672076
7.020000000000014 14424.778732844929
7.050000000000014 14416.255649220937
7.080000000000014 14408.846219092271
7.1100000000000145 14402.698624172903
7.140000000000015 14397.82834581387
7.170000000000015 14394.124666787615
7.200000000000015 14391.368266270443
7.2300000000000155 14389.258290737058
7.260000000000016 14387.445718024692
7.290000000000016 14385.568904491513
7.320000000000016 14383.288449757998
7.3500000000000165 14380.318184781667
7.380000000000017 14376.449575287364
7.410000000000017 14371.567565909574
7.440000000000017 14365.656985863892
7.4700000000000175 14358.799088175916
7.500000000000018 14351.15901060593
7.530000000000018 14342.965868613774
7.560000000000018 14334.487830918702
7.5900000000000185 14326.00440195655
7.620000000000019 14317.77873326635
7.650000000000019 14310.032650681851
7.680000000000019 14302.926867081136
7.7100000000000195 14296.54819550258
7.74000000000002 14290.90441434694
7.77000000000002 14285.926933947923
7.80000000000002 14281.480387527965
7.8300000000000205 14277.378671106742
7.860000000000021 14273.405271828758
7.890000000000021 14269.335948154128
7.920000000000021 14264.961175311859
7.9500000000000215 14260.106460258059
7.980000000000022 14254.648219174958
8.010000000000021 14248.524364896844
8.04000000000002 14241.738194906851
8.07000000000002 14234.355502779452
8.10000000000002 14226.495542590865
8.130000000000019 14218.316946299297
8.160000000000018 14210.000181786545
8.190000000000017 14201.728494007448
8.220000000000017 14193.669145821525
8.250000000000016 14185.957057025673
8.280000000000015 14178.682031682767
8.310000000000015 14171.88110127289
8.340000000000014 14165.53636255148
8.370000000000013 14159.579100013527
8.400000000000013 14153.899023267899
8.430000000000012 14148.356982873805
8.460000000000012 14142.800517001926
8.49000000000001 14137.080097372593
8.52000000000001 14131.064344925353
8.55000000000001 14124.65313057383
8.580000000000009 14117.787339148326
8.610000000000008 14110.45397311416
8.640000000000008 14102.686028424918
8.670000000000007 14094.557071709716
8.700000000000006 14086.171808000809
8.730000000000006 14077.653574997326
8.760000000000005 14069.13087474403
8.790000000000004 14060.723481256988
8.820000000000004 14052.530055924004
8.850000000000003 14044.618511409915
8.880000000000003 14037.01981939088
8.910000000000002 14029.72612016962
8.940000000000001 14022.693058603041
8.97 14015.845982351004
9.0 14009.089773468362
9.03 14002.319753735212
9.059999999999999 13995.433286788182
9.089999999999998 13988.340730910286
9.119999999999997 13980.97469395788
9.149999999999997 13973.296671165952
9.179999999999996 13965.300141952455
9.209999999999996 13957.009955223844
9.239999999999995 13948.478417685936
9.269999999999994 13939.778243123872
9.299999999999994 13930.993787289399
9.329999999999993 13922.211739473034
9.359999999999992 13913.511381547454
9.389999999999992 13904.956053622256
9.419999999999991 13896.58688837367
9.44999999999999 13888.419188441858
9.47999999999999 13880.441811169656
9.50999999999999 13872.619409089759
9.539999999999988 13864.897102759614
9.569999999999988 13857.207448919467
9.599999999999987 13849.478514848559
9.629999999999987 13841.642092488912
9.659999999999986 13833.640746509805
9.689999999999985 13825.433287405262
9.719999999999985 13816.998643969959
9.749999999999984 13808.337090955036
9.779999999999983 13799.469198598386
9.809999999999983 13790.432085865496
9.839999999999982 13781.274820528226
9.869999999999981 13772.05235394676
9.89999999999998 13762.818881706811
9.92999999999998 13753.621340641099
9.95999999999998 13744.494889877811
9.989999999999979 13735.459733490901
10.019999999999978 12517.280609615767
10.049999999999978 9712.915581999816
10.079999999999977 5765.682741051578
10.109999999999976 1227.3417049260863
10.139999999999976 -3314.3357364127965
10.169999999999975 -7310.083853501781
10.199999999999974 -10314.174835475718
10.229999999999974 -12031.742761810921
10.259999999999973 -12343.740539669201
10.289999999999973 -11308.401505164165
10.319999999999972 -9141.190737187753
10.349999999999971 -6177.58263600156
10.37999999999997 -2824.5342735048757
10.40999999999997 492.7993031595118
10.43999999999997 3382.6407502643465
10.469999999999969 5530.6831098410385
10.499999999999968 6732.132934475742
10.529999999999967 6908.723601866608
10.559999999999967 6109.566709970816
10.589999999999966 4496.684304883453
10.619999999999965 2317.8568344366304
10.649999999999965 -129.10450740634315
10.679999999999964 -2535.6894362489243
10.709999999999964 -4620.499933921549
10.739999999999963 -6160.968633200327
10.769999999999962 -7015.545132592727
10.799999999999962 -7134.406701841101
10.829999999999961 -6558.3362275388145
10.85999999999996 -5406.91320262619
10.88999999999996 -3858.3030492246708
10.919999999999959 -2123.746431104354
10.949999999999958 -420.17354410971745
10.979999999999958 1055.6947615899721
11.009999999999957 2148.850956739759
11.039999999999957 2760.933924215456
11.069999999999956 2857.3505794701387
11.099999999999955 2466.3457212559247
11.129999999999955 1670.7672134023342
11.159999999999954 594.0585184637018
11.189999999999953 -617.3932130665071
11.219999999999953 -1813.1775317229367
11.249999999999952 -2856.7075110530122
11.279999999999951 -3639.9797268429948
11.30999999999995 -4093.773095513675
11.33999999999995 -4192.482267209391
11.36999999999995 -3953.4783559879306
11.399999999999949 -3431.5482756807796
11.429999999999948 -2709.4718440397182
11.459999999999948 -1886.1665064796662
11.489999999999947 -1063.9733454412562
11.519999999999946 -336.6260720757347
11.549999999999946 220.76796420326446
11.579999999999945 558.7534922940583
11.609999999999944 657.008648096569
11.639999999999944 524.1857652258127
11.669999999999943 194.45127562731437
11.699999999999942 -278.5959228588501
11.729999999999942 -829.691861759523
11.759999999999941 -1390.32323116042
11.78999999999994 -1896.774378074189
11.81999999999994 -2296.9172500844547
11.84999999999994 -2555.0825319259875
11.879999999999939 -2654.630304767245
11.909999999999938 -2598.137139311819
11.939999999999937 -2405.39828986281
11.969999999999937 -2109.666319174054
11.999999999999936 -1752.719472484542
12.029999999999935 -1379.425053943076
12.059999999999935 -1032.4584383601027
12.089999999999934 -747.7564687573563
12.119999999999933 -551.1481756916704
12.149999999999933 -456.4276295640438
12.179999999999932 -464.94466895469253
12.209999999999932 -566.6100461703032
12.239999999999931 -742.0708255804109
12.26999999999993 -965.6944309698781
12.29999999999993 -1208.9558152369693
12.329999999999929 -1443.81401712616
12.359999999999928 -1645.7114954070382
12.389999999999928 -1795.9055463828156
12.419999999999927 -1882.9424810079363
12.449999999999926 -1903.1979826040927
12.479999999999926 -1860.5180743759597
12.509999999999925 -1765.08959900621
12.539999999999925 -1631.744111086239
12.569999999999924 -1477.9332120724916
12.599999999999923 -1321.628986501436
12.629999999999923 -1179.3814350786872
12.659999999999922 -1064.723978519922
12.689999999999921 -987.057607181122
12.71999999999992 -951.07971232939
12.74999999999992 -956.7590530043751
12.77999999999992 -999.8000782436452
12.809999999999919 -1072.494676262397
12.839999999999918 -1164.8339377293025
12.869999999999918 -1265.7383485495704
12.899999999999917 -1364.2718471904739
12.929999999999916 -1450.7265640420214
12.959999999999916 -1517.4754102754446
12.989999999999915 -1559.5255752112764
13.019999999999914 -1574.7609122828658
13.049999999999914 -1563.883083811713
13.079999999999913 -1530.0872966519617
13.109999999999912 -1478.5298472231893
13.139999999999912 -1415.6598964105733
13.169999999999911 -1348.492700296405
13.19999999999991 -1283.8977049732937
13.22999999999991 -1227.9640007264156
13.25999999999991 -1185.4934740383758
13.289999999999909 -1159.6547452134832
13.319999999999908 -1151.8128863025613
13.349999999999907 -1161.5359297212901
13.379999999999907 -1186.7617790825877
13.409999999999906 -1224.1002737224942
13.439999999999905 -1269.2336131883205
13.469999999999905 -1317.3739068293896
13.499999999999904 -1363.7335335870976
13.529999999999903 -1403.9687759209753
13.559999999999903 -1434.5578717692397
13.589999999999902 -1453.0851268033898
13.619999999999902 -1458.4111624395355
13.6499999999999 -1450.7184507650657
13.6799999999999 -1431.4342615055616
13.7099999999999 -1403.0420790678918
13.739999999999899 -1368.8016156802794
13.769999999999898 -1332.4069015206164
13.799999999999898 -1297.6139752967367
13.829999999999897 -1267.876081872365
13.859999999999896 -1246.0175492489093
13.889999999999896 -1233.9766124370876
13.919999999999895 -1232.6423628047644
13.949999999999894 -1241.7989002515294
13.979999999999894 -1260.1807766563625
14.009999999999893 -1285.6314572078375
14.039999999999893 -1315.3484903647734
14.069999999999892 -1346.1878744846147
14.099999999999891 -1374.995066046015
14.12999999999989 -1398.9300691599472
14.15999999999989 -1415.7522938970928
14.18999999999989 -1424.0345256822573
14.219999999999889 -1423.2887408356144
14.249999999999888 -1413.991491493699
14.279999999999887 -1397.5053656086084
14.309999999999887 -1375.9095315057257
14.339999999999886 -1351.7592372860474
14.369999999999886 -1327.7992037085646
14.399999999999885 -1306.6643735678715
14.429999999999884 -1290.6011610651726
14.459999999999884 -1281.2381240345408
14.489999999999883 -1279.4291923820551
14.519999999999882 -1285.1852804464154
14.549999999999882 -1297.6991944348247
14.579999999999881 -1315.4585438533982
14.60999999999988 -1336.4334963909675
14.63999999999988 -1358.3159351415648
14.66999999999988 -1378.7801078441503
14.699999999999878 -1395.7371490833864
14.729999999999878 -1407.5561039607078
14.759999999999877 -1413.2274802122793
14.789999999999877 -1412.4521016050248
14.819999999999876 -1405.6493958613828
14.849999999999875 -1393.8852052994134
14.879999999999875 -1378.7304903128597
14.909999999999874 -1362.0684878804361
14.939999999999873 -1345.8737713275377
14.969999999999873 -1331.989964838581
14.999999999999872 -1321.9300660773208
15.029999999999871 -1316.720895352337
15.05999999999987 -1316.807108436608
15.08999999999987 -1322.0240194788946
15.11999999999987 -1331.6409646802185
15.149999999999869 -1344.4661157569994
15.179999999999868 -1358.9981225628117
15.209999999999868 -1373.6072470416382
15.239999999999867 -1386.7237760422656
15.269999999999866 -1397.0096610150613
15.299999999999866 -1403.497852402
15.329999999999865 -1405.685607416507
15.359999999999864 -1403.5715824878962
15.389999999999864 -1397.634321092308
15.419999999999863 -1388.7576654108757
15.449999999999863 -1378.1138245982775
15.479999999999862 -1367.018987357385
15.509999999999861 -1356.7784287379636
15.53999999999986 -1348.540730358476
15.56999999999986 -1343.1755943858386
15.59999999999986 -1341.1897879328621
15.629999999999859 -1342.6860153151542
15.659999999999858 -1347.3713519291082
15.689999999999857 -1354.6089647980807
15.719999999999857 -1363.5059039487483
15.749999999999856 -1373.024702771206
15.779999999999855 -1382.107868024172
15.809999999999855 -1389.7979266377054
15.839999999999854 -1395.3403385748052
15.869999999999854 -1398.258397145761
15.899999999999853 -1398.3937371081186
15.929999999999852 -1395.9084846076041
15.959999999999852 -1391.2512348696628
15.989999999999851 -1385.0915104731914
16.01999999999985 -1378.2330683591113
16.04999999999985 -1371.5165810635165
16.079999999999853 -1365.7221539296172
