# Results for "element" with Id # 89172 for search config "initial" at position: x0: -24.7105263158; y0: 0; z0: 249.9998
# time PRESSURE
0.03 1364.2533566816921
0.06 3901.483393915093
0.09 7328.020859540775
0.12 11294.119088834183
0.15 15416.865467794458
0.18 19315.208955035003
0.21 22643.705210079203
0.24 25122.114635065635
0.27 26558.424357954675
0.30000000000000004 26863.38409608461
0.33000000000000007 26055.32807381927
0.3600000000000001 24254.90355682461
0.3900000000000001 21670.29873323148
0.42000000000000015 18574.53520679716
0.4500000000000002 15277.23551716444
0.4800000000000002 12093.85118360627
0.5100000000000002 9315.544366307866
0.5400000000000003 7182.726141336139
0.5700000000000003 5864.710065130178
0.6000000000000003 5447.1427880872425
0.6300000000000003 5927.964396407259
0.6600000000000004 7221.755929389821
0.6900000000000004 9171.55732331838
0.7200000000000004 11566.642968885657
0.7500000000000004 14164.343359678485
0.7800000000000005 16713.788239474
0.8100000000000005 18979.401400154184
0.8400000000000005 20762.08259588135
0.8700000000000006 21916.25973973979
0.9000000000000006 22361.381416969038
0.9300000000000006 22086.93108600612
0.9600000000000006 21150.654426491776
0.9900000000000007 19670.349521286968
1.0200000000000007 17810.198810119684
1.0500000000000007 15763.15980864086
1.0800000000000007 13731.292621049004
1.1100000000000008 11906.05288142787
1.1400000000000008 10450.497382793488
1.1700000000000008 9485.059001182972
1.2000000000000008 9078.095256459466
1.2300000000000009 9241.869159274436
1.260000000000001 9934.050449541208
1.290000000000001 11064.29553105878
1.320000000000001 12505.019294980462
1.350000000000001 14105.145284302962
1.380000000000001 15705.421695186647
1.410000000000001 17153.822637773636
1.440000000000001 18319.611546251406
1.470000000000001 19104.816170151506
1.500000000000001 19452.138662243207
1.5300000000000011 19348.67958029322
1.5600000000000012 18825.264694667017
1.5900000000000012 17951.589395363302
1.6200000000000012 16827.803673739752
1.6500000000000012 15573.491931232184
1.6800000000000013 14315.236911500913
1.7100000000000013 13174.054561076198
1.7400000000000013 12253.946913243892
1.7700000000000014 11632.649086827994
1.8000000000000014 11355.371881429723
1.8300000000000014 11432.00005487567
1.8600000000000014 11837.841818192064
1.8900000000000015 12517.673415669422
1.9200000000000015 13392.522566861593
1.9500000000000015 14368.405708184346
1.9800000000000015 15346.09102084034
2.0100000000000016 16230.910291351081
2.0400000000000014 16941.682643830398
2.070000000000001 17417.93665114519
2.100000000000001 17624.809993620875
2.130000000000001 17555.250657181678
2.1600000000000006 17229.416031084722
2.1900000000000004 16691.444445149114
2.22 16004.024400761286
2.25 15241.390091554009
2.28 14481.50432815295
2.3099999999999996 13798.239709248635
2.3399999999999994 13254.333048007804
2.369999999999999 12895.77448371867
2.399999999999999 12748.117079139854
2.429999999999999 12814.97645745983
2.4599999999999986 13078.760365308934
2.4899999999999984 13503.444653453254
2.5199999999999982 14039.022537521372
2.549999999999998 14627.109040650601
2.579999999999998 15207.095400725015
2.6099999999999977 15722.22369273899
2.6399999999999975 16124.9888074611
2.6699999999999973 16381.36703793758
2.699999999999997 16473.507909895576
2.729999999999997 16400.69338878608
2.7599999999999967 16178.549290505342
2.7899999999999965 15836.67007260422
2.8199999999999963 15414.970025820636
2.849999999999996 14959.188299209225
2.879999999999996 14516.040866103158
2.9099999999999957 14128.523923482648
2.9399999999999955 13831.83221377786
2.9699999999999953 13650.269503445405
2.999999999999995 13595.40809398182
3.029999999999995 13665.615161003121
3.0599999999999947 13846.919963466236
3.0899999999999945 14115.064025151483
3.1199999999999943 14438.466828183517
3.149999999999994 14781.763051021484
3.179999999999994 15109.528600086589
3.2099999999999937 15389.814513096157
3.2399999999999936 15597.14627771546
3.2699999999999934 15714.716658593654
3.299999999999993 15735.594954917373
3.329999999999993 15662.882523709752
3.3599999999999928 15508.8545000667
3.3899999999999926 15293.227177347288
3.4199999999999924 15040.77245857098
3.449999999999992 14778.554669489647
3.479999999999992 14533.0890983432
3.509999999999992 14327.713239093351
3.5399999999999916 14180.424162575664
3.5699999999999914 14102.374147803464
3.599999999999991 14097.139466316148
3.629999999999991 14160.792273571915
3.659999999999991 14282.722985214434
3.6899999999999906 14447.0882612208
3.7199999999999904 14634.702809653707
3.7499999999999902 14825.159615784854
3.77999999999999 14998.951996515927
3.80999999999999 15139.383449294866
3.8399999999999896 15234.08467813015
3.8699999999999894 15276.007066425314
3.8999999999999893 15263.821985955447
3.929999999999989 15201.719849107903
3.959999999999989 15098.66340337737
3.9899999999999887 14967.202119886791
4.019999999999989 14821.993754810877
4.049999999999989 14678.19981973257
4.079999999999989 14549.925219797353
4.10999999999999 14448.857655249652
4.13999999999999 14383.232905160627
4.16999999999999 14357.211521015342
4.19999999999999 14370.705637262297
4.229999999999991 14419.646059331448
4.259999999999991 14496.636461074824
4.289999999999991 14591.90439042348
4.319999999999991 14694.434927104954
4.349999999999992 14793.16092686608
4.379999999999992 14878.085490157317
4.409999999999992 14941.226811232245
4.439999999999992 14977.300306951514
4.469999999999993 14984.084932883208
4.499999999999993 14962.455972354099
4.529999999999993 14916.101890725939
4.559999999999993 14850.973392733893
4.589999999999994 14774.537788444493
4.619999999999994 14694.926578583256
4.649999999999994 14620.069710255324
4.679999999999994 14556.9053752703
4.709999999999995 14510.741039703185
4.739999999999995 14484.820930453163
4.769999999999995 14480.13075704376
4.799999999999995 14495.444665021576
4.829999999999996 14527.593871364705
4.859999999999996 14571.914107996134
4.889999999999996 14622.815762186017
4.919999999999996 14674.410567342833
4.949999999999997 14721.127352087406
4.979999999999997 14758.254977046781
5.009999999999997 14782.362034404701
5.039999999999997 14791.558737049494
5.069999999999998 14785.58501513969
5.099999999999998 14765.72764828759
5.129999999999998 14734.585914747295
5.159999999999998 14695.720259345293
5.189999999999999 14653.227260773056
5.219999999999999 14611.289149379754
5.249999999999999 14573.74529449979
5.279999999999999 14543.727505689993
5.31 14523.392861084907
5.34 14513.773418368286
5.37 14514.749103398291
5.4 14525.139458488246
5.430000000000001 14542.896082073668
5.460000000000001 14565.36959167597
5.490000000000001 14589.618445582873
5.520000000000001 14612.7255907686
5.550000000000002 14632.090299932268
5.580000000000002 14645.667433781728
5.610000000000002 14652.133769070706
5.640000000000002 14650.969719618075
5.670000000000003 14642.454421478062
5.700000000000003 14627.581025819982
5.730000000000003 14607.906294837174
5.760000000000003 14585.35430609815
5.790000000000004 14561.99755168644
5.820000000000004 14539.839033710756
5.850000000000004 14520.617304490315
5.880000000000004 14505.65186424394
5.910000000000005 14495.741695624307
5.940000000000005 14491.12314612021
5.970000000000005 14491.487168215084
6.000000000000005 14496.049398279622
6.030000000000006 14503.66264570564
6.060000000000006 14512.957257769136
6.090000000000006 14522.49296145287
6.120000000000006 14530.906508837805
6.150000000000007 14537.04083716072
6.180000000000007 14540.044267384837
6.210000000000007 14539.432205388634
6.240000000000007 14535.108091984355
6.270000000000008 14527.34456437321
6.300000000000008 14516.729794564519
6.330000000000008 14504.087121146496
6.360000000000008 14490.377604637335
6.390000000000009 14476.595724651712
6.420000000000009 14463.669491532444
6.450000000000009 14452.374635164946
6.480000000000009 14443.270029394746
6.51000000000001 14436.658923554765
6.54000000000001 14432.578180688412
6.57000000000001 14430.813772640104
6.60000000000001 14430.939211207013
6.6300000000000106 14432.37134474861
6.660000000000011 14434.437694338007
6.690000000000011 14436.447538983433
6.720000000000011 14437.759717610603
6.7500000000000115 14437.840732471988
6.780000000000012 14436.308421934336
6.810000000000012 14432.958099143758
6.840000000000012 14427.770097461562
6.8700000000000125 14420.899219169612
6.900000000000013 14412.648738398817
6.930000000000013 14403.431841213875
6.960000000000013 14393.725070939749
6.9900000000000135 14384.01881221495
7.020000000000014 14374.769612073207
7.050000000000014 14366.358882288994
7.080000000000014 14359.061272670127
7.1100000000000145 14353.025068115352
7.140000000000015 14348.266027891812
7.170000000000015 14344.673770416299
7.200000000000015 14342.029337691376
7.2300000000000155 14340.032268013205
7.260000000000016 14338.333964303805
7.290000000000016 14336.573141313489
7.320000000000016 14334.410639236316
7.3500000000000165 14331.560419519623
7.380000000000017 14327.814009731324
7.410000000000017 14323.056373720192
7.440000000000017 14317.272299960603
7.4700000000000175 14310.542930797159
7.500000000000018 14303.033243891405
7.530000000000018 14294.972141805698
7.560000000000018 14286.627502684063
7.5900000000000185 14278.278492286245
7.620000000000019 14270.187963085866
7.650000000000019 14262.577589325087
7.680000000000019 14255.608136199164
7.7100000000000195 14249.366632303414
7.74000000000002 14243.861119619876
7.77000000000002 14239.023277314529
7.80000000000002 14234.718007108124
7.8300000000000205 14230.759417372994
7.860000000000021 14226.93113009222
7.890000000000021 14223.008939148567
7.920000000000021 14218.783260427885
7.9500000000000215 14214.07947898555
7.980000000000022 14208.773858219747
8.010000000000021 14202.804118219163
8.04000000000002 14196.173324712014
8.07000000000002 14188.947054594042
8.10000000000002 14181.244417252787
8.130000000000019 14173.224016511798
8.160000000000018 14165.06643260764
8.190000000000017 14156.955122535215
8.220000000000017 14149.057586929852
8.250000000000016 14141.508903049265
8.280000000000015 14134.398915639802
8.310000000000015 14127.764615752028
8.340000000000014 14121.588071170703
8.370000000000013 14115.800459587626
8.400000000000013 14110.291212735508
8.430000000000012 14104.920815226878
8.460000000000012 14099.53641453688
8.49000000000001 14093.988134878238
8.52000000000001 14088.144482271764
8.55000000000001 14081.90547894271
8.580000000000009 14075.212290701056
8.610000000000008 14068.052178425809
8.640000000000008 14060.458255438261
8.670000000000007 14052.504062607655
8.700000000000006 14044.294186930556
8.730000000000006 14035.951871369842
8.760000000000005 14027.605519978051
8.790000000000004 14019.374844177375
8.820000000000004 14011.358484064043
8.850000000000003 14003.62433677771
8.880000000000003 13996.203374036293
8.910000000000002 13989.087741818192
8.940000000000001 13982.23309196714
8.97 13975.564782023606
9.0 13968.98757751463
9.03 13962.396586575056
9.059999999999999 13955.68892094204
9.089999999999998 13948.774716490949
9.119999999999997 13941.586412954528
9.149999999999997 13934.085391558041
9.179999999999996 13926.265063582581
9.209999999999996 13918.150234096822
9.239999999999995 13909.793154344577
9.269999999999994 13901.266475694183
9.299999999999994 13892.654530052612
9.329999999999993 13884.043870515423
9.359999999999992 13875.513573949967
9.389999999999992 13867.126742129936
9.419999999999991 13858.924241822675
9.44999999999999 13850.921111152209
9.47999999999999 13843.105967393258
9.50999999999999 13835.443265706619
9.539999999999988 13827.877999478394
9.569999999999988 13820.342641249563
9.599999999999987 13812.765192721301
9.629999999999987 13805.077368784281
9.659999999999986 13797.22166017985
9.689999999999985 13789.156831622402
9.719999999999985 13780.861772371063
9.749999999999984 13772.336724049841
9.779999999999983 13763.602227569474
9.809999999999983 13754.695381324578
9.839999999999982 13745.665152344347
9.869999999999981 13736.5662783642
9.89999999999998 13727.45264981796
9.92999999999998 13718.37087523931
9.95999999999998 13709.35573211141
9.989999999999979 13700.426975040173
10.019999999999978 12479.727973041747
10.049999999999978 9669.781356620355
10.079999999999977 5715.608695487661
10.109999999999976 1170.8630301750472
10.139999999999976 -3375.1373049681993
10.169999999999975 -7372.255999412292
10.199999999999974 -10374.619358771812
10.229999999999974 -12087.775912623432
10.259999999999973 -12393.405467968225
10.289999999999973 -11350.561169507591
10.319999999999972 -9175.48431854833
10.349999999999971 -6204.3243772589185
10.37999999999997 -2844.5980048449082
10.40999999999997 478.10233035444867
10.43999999999997 3371.700534112018
10.469999999999969 5521.75416256541
10.499999999999968 6723.516358353487
10.529999999999967 6898.949082656526
10.559999999999967 6097.548073724993
10.589999999999966 4481.82435763429
10.619999999999965 2300.085375682887
10.649999999999965 -149.36346953477982
10.679999999999964 -2557.614497895261
10.709999999999964 -4643.017161737843
10.739999999999963 -6182.922598279075
10.769999999999962 -7035.871256432778
10.799999999999962 -7152.280952805725
10.829999999999961 -6573.282081854219
10.85999999999996 -5418.85273152473
10.88999999999996 -3867.5479250017734
10.919999999999959 -2130.9337028986984
10.949999999999958 -426.1593480934906
10.979999999999958 1049.9652535177863
11.009999999999957 2142.4766831352135
11.039999999999957 2753.1746995576327
11.069999999999956 2847.712175516808
11.099999999999955 2454.6237825940425
11.129999999999955 1657.0475625731267
11.159999999999954 578.6780249764531
11.189999999999953 -633.915910422099
11.219999999999953 -1830.228543716753
11.249999999999952 -2873.668150021355
11.279999999999951 -3656.308490692001
11.30999999999995 -4109.0693352929375
11.33999999999995 -4206.525253231389
11.36999999999995 -3966.2391712296067
11.399999999999949 -3443.1758557184758
11.429999999999948 -2720.2575322488733
11.459999999999948 -1896.4933799485325
11.489999999999947 -1074.2582977838783
11.519999999999946 -347.26248448787516
11.549999999999946 209.45983393920636
11.579999999999945 546.5627503560197
11.609999999999944 643.853155442608
11.639999999999944 510.11353880388185
11.669999999999943 179.62519724135876
11.699999999999942 -293.92670208461834
11.729999999999942 -845.2292677822211
11.759999999999941 -1405.760923687874
11.78999999999994 -1911.8361581846643
11.81999999999994 -2311.388427562101
11.84999999999994 -2568.8309100595125
11.879999999999939 -2667.6150368474937
11.909999999999938 -2610.405425176097
11.939999999999937 -2417.071026451029
11.969999999999937 -2120.9156297602767
11.999999999999936 -1763.7416152816954
12.029999999999935 -1390.412418122465
12.059999999999935 -1043.574221292186
12.089999999999934 -759.1152812734194
12.119999999999933 -562.8045761412391
12.149999999999933 -468.3733439485268
12.179999999999932 -477.1140846221782
12.209999999999932 -578.892679941048
12.239999999999931 -754.3283806177171
12.26999999999993 -977.7799865643364
12.29999999999993 -1220.7325940139954
12.329999999999929 -1455.1716652204886
12.359999999999928 -1656.5778402679362
12.389999999999928 -1806.2524583459751
12.419999999999927 -1892.785610765056
12.449999999999926 -1912.5909982795101
12.479999999999926 -1869.5426920581942
12.509999999999925 -1773.8430239187946
12.539999999999925 -1640.3256134656785
12.569999999999924 -1486.4315937363756
12.599999999999923 -1330.11246620164
12.629999999999923 -1187.890984224658
12.659999999999922 -1073.2707007179456
12.689999999999921 -995.624154491273
12.71999999999992 -959.6252648421055
12.74999999999992 -965.2269560218253
12.77999999999992 -1008.1268615903155
12.809999999999919 -1080.619336486648
12.839999999999918 -1172.7065695649603
12.869999999999918 -1273.32740497346
12.899999999999917 -1371.5688380559807
12.929999999999916 -1457.7448285415621
12.959999999999916 -1524.2452911741857
12.989999999999915 -1566.0909868306144
13.019999999999914 -1581.175036594976
13.049999999999914 -1570.202430000625
13.079999999999913 -1536.3653601554681
13.109999999999912 -1484.811660368021
13.139999999999912 -1421.9782919530421
13.169999999999911 -1354.8666313877825
13.19999999999991 -1290.3325517286448
13.22999999999991 -1234.4536259602396
13.25999999999991 -1192.0235797641408
13.289999999999909 -1166.2069870187156
13.319999999999908 -1158.3692033907178
13.349999999999907 -1168.0824723744581
13.379999999999907 -1193.2920400435569
13.409999999999906 -1230.6170632800197
13.439999999999905 -1275.7496903373249
13.469999999999905 -1323.9113284665384
13.499999999999904 -1370.3219817188892
13.529999999999903 -1410.6430153257302
13.559999999999903 -1441.3547033026775
13.589999999999902 -1460.0402845884446
13.619999999999902 -1465.5566240667085
13.6499999999999 -1458.0805564345376
13.6799999999999 -1439.032554003079
13.7099999999999 -1410.8886904598608
13.739999999999899 -1376.9013201319303
13.769999999999898 -1340.7580234326117
13.799999999999898 -1306.210130396429
13.829999999999897 -1276.7082596458445
13.859999999999896 -1255.0761959890438
13.889999999999896 -1243.2536352163775
13.919999999999895 -1242.1326826814477
13.949999999999894 -1251.501312949622
13.979999999999894 -1270.0980393060872
14.009999999999893 -1295.76969869354
14.039999999999893 -1325.716039919291
14.069999999999892 -1356.793712198861
14.099999999999891 -1385.8473262654122
14.12999999999989 -1410.0346450280356
14.15999999999989 -1427.11159381084
14.18999999999989 -1435.6466060652278
14.219999999999889 -1435.1468317655663
14.249999999999888 -1426.083955559289
14.279999999999887 -1409.816233618603
14.309999999999887 -1388.4194862746829
14.339999999999886 -1364.446879821027
14.369999999999886 -1340.6424729648836
14.399999999999885 -1319.6418793890205
14.429999999999884 -1303.6932364558606
14.459999999999884 -1294.427430973542
14.489999999999883 -1292.7009113212355
14.519999999999882 -1298.5269361560322
14.549999999999882 -1311.1001913790415
14.579999999999881 -1328.9094293927155
14.60999999999988 -1349.9250973350358
14.63999999999988 -1371.838533495334
14.66999999999988 -1392.3228963245565
14.699999999999878 -1409.2880026581354
14.729999999999878 -1421.1015685806833
14.759999999999877 -1426.7529345089588
14.789999999999877 -1425.9420762558157
14.819999999999876 -1419.0879349567454
14.849999999999875 -1407.2562864643642
14.879999999999875 -1392.0184678545518
14.909999999999874 -1375.258502297465
14.939999999999873 -1358.9521075563882
14.969999999999873 -1344.9442451776913
14.999999999999872 -1334.7492929905009
15.029999999999871 -1329.3953821228286
15.05999999999987 -1329.328342169848
15.08999999999987 -1334.3845449663017
15.11999999999987 -1343.8341496878722
15.149999999999869 -1356.4858178385516
15.179999999999868 -1370.838347722353
15.209999999999868 -1385.2618348067556
15.239999999999867 -1398.1861960028914
15.269999999999866 -1408.2731318136
15.299999999999866 -1414.5556470153733
15.329999999999865 -1416.5313738806376
15.359999999999864 -1414.1996545326206
15.389999999999864 -1408.0400687420165
15.419999999999863 -1398.9378474922603
15.449999999999863 -1388.0667805155954
15.479999999999862 -1376.7446869977564
15.509999999999861 -1366.2784744234145
15.53999999999986 -1357.818246334072
15.56999999999986 -1352.2350326094227
15.59999999999986 -1350.0367167729987
15.629999999999859 -1351.3270407923046
15.659999999999858 -1355.8139328851264
15.689999999999857 -1362.8612545899543
15.719999999999857 -1371.576626991212
15.749999999999856 -1380.9231197021613
15.779999999999855 -1389.8436423006042
15.809999999999855 -1397.3809333968786
15.839999999999854 -1402.780574106586
15.869999999999854 -1405.565998446796
15.899999999999853 -1405.5790168189428
15.929999999999852 -1402.9819844540157
15.959999999999852 -1398.2238849345558
15.989999999999851 -1391.9748989896905
16.01999999999985 -1385.0396351483532
16.04999999999985 -1378.2596076690716
16.079999999999853 -1372.4156965302484
16.109999999999854 -1368.1442890988847
