# Results for "element" with Id # 224457 for search config "initial" at position: x0: -14.8263157895; y0: 0; z0: 249.9998
# time PRESSURE
0.03 1358.3125631795708
0.06 3884.4346873034397
0.09 7295.872637242696
0.12 11244.360442341913
0.15 15348.65826587776
0.18 19229.45493877897
0.21 22542.975114696008
0.24 25010.427218166747
0.27 26440.87321385061
0.30000000000000004 26745.630281504928
0.33000000000000007 25943.002698329674
0.3600000000000001 24152.98967942427
0.3900000000000001 21582.575244934444
0.42000000000000015 18503.16502819333
0.4500000000000002 15222.559954893248
0.4800000000000002 12054.417722401948
0.5100000000000002 9288.35519558304
0.5400000000000003 7163.659883568173
0.5700000000000003 5849.047638890663
0.6000000000000003 5430.122756017305
0.6300000000000003 5905.301155472254
0.6600000000000004 7190.06891904601
0.6900000000000004 9128.676836946512
0.7200000000000004 11511.772312713343
0.7500000000000004 14098.069334778851
0.7800000000000005 16637.943390614015
0.8100000000000005 18896.794468505326
0.8400000000000005 20676.128527409983
0.8700000000000006 21830.554942205854
0.9000000000000006 22279.279801318746
0.9300000000000006 22011.176933232982
0.9600000000000006 21083.118306628832
0.9900000000000007 19611.895164640206
1.0200000000000007 17760.68508494484
1.0500000000000007 15721.561614086891
1.0800000000000007 13695.909082688977
1.1100000000000008 11874.764490786085
1.1400000000000008 10421.034585243824
1.1700000000000008 9455.251128704138
1.2000000000000008 9046.077292132573
1.2300000000000009 9206.233283115469
1.260000000000001 9893.936659720028
1.290000000000001 11019.422412234002
1.320000000000001 12455.659976293931
1.350000000000001 14052.056893669082
1.380000000000001 15649.738685593804
1.410000000000001 17096.925625904565
1.440000000000001 18262.98397494696
1.470000000000001 19049.901093687145
1.500000000000001 19400.20776133765
1.5300000000000011 19300.725049923196
1.5600000000000012 18781.92321054879
1.5900000000000012 17913.104285718127
1.6200000000000012 16794.027866999284
1.6500000000000012 15543.930366787721
1.6800000000000013 14289.122719902878
1.7100000000000013 13150.449634400726
1.7400000000000013 12231.85485055432
1.7700000000000014 11611.127410732272
1.8000000000000014 11333.630714340543
1.8300000000000014 11409.476868706453
1.8600000000000014 11814.244943767953
1.8900000000000015 12492.991698154703
1.9200000000000015 13367.00297363621
1.9500000000000015 14342.504734383021
1.9800000000000015 15320.408775475595
2.0100000000000016 16206.117543506916
2.0400000000000014 16918.450648719798
2.070000000000001 17396.877483855234
2.100000000000001 17606.432198702132
2.130000000000001 17539.931458928
2.1600000000000006 17217.38885393326
2.1900000000000004 16682.798453092204
2.22 15998.712555713937
2.25 15239.242888538436
2.28 14482.247611357587
2.3099999999999996 13801.516319830622
2.3399999999999994 13259.728740967943
2.369999999999999 12902.84857480824
2.399999999999999 12756.43731912557
2.429999999999999 12824.156437557485
2.4599999999999986 13088.496126837117
2.4899999999999984 13513.546417449983
2.5199999999999982 14049.436959626386
2.549999999999998 14637.928118642585
2.579999999999998 15218.549556027072
2.6099999999999977 15734.658592138756
2.6399999999999975 16138.827848095396
2.6699999999999973 16397.063587515244
2.699999999999997 16491.493035175146
2.729999999999997 16421.325682847957
2.7599999999999967 16202.073306720611
2.7899999999999965 15863.188594512412
2.8199999999999963 15444.433692764778
2.849999999999996 14991.403569808448
2.879999999999996 14550.69491569799
2.9099999999999957 14165.222890043262
2.9399999999999955 13870.147628893435
2.9699999999999953 13689.786982305866
2.999999999999995 13635.772433836628
3.029999999999995 13706.566743112853
3.0599999999999947 13888.318709264302
3.0899999999999945 14156.898765397864
3.1199999999999943 14480.84938291679
3.149999999999994 14824.908698665004
3.179999999999994 15153.726159409012
3.2099999999999937 15435.389894480875
3.2399999999999936 15644.423811285702
3.2699999999999934 15763.982577123053
3.299999999999993 15787.066966775712
3.329999999999993 15716.68856319364
3.3599999999999928 15565.022520531624
3.3899999999999926 15351.68657261681
3.4199999999999924 15101.366490024331
3.449999999999992 14841.061920992466
3.479999999999992 14597.251089010471
3.509999999999992 14393.264700207055
3.5399999999999916 14247.122373682532
3.5699999999999914 14170.024028286447
3.599999999999991 14165.611859479262
3.629999999999991 14230.033872459786
3.659999999999991 14352.757290538058
3.6899999999999906 14518.007925724052
3.7199999999999904 14706.654758516204
3.7499999999999902 14898.32514973084
3.77999999999999 15073.524298237786
3.80999999999999 15215.54515052437
3.8399999999999896 15311.988023180664
3.8699999999999894 15355.758687810006
3.8999999999999893 15345.473628408485
3.929999999999989 15285.265478997642
3.959999999999989 15184.042744169936
3.9899999999999887 15054.310014597813
4.019999999999989 14910.693997513794
4.049999999999989 14768.341577195817
4.079999999999989 14641.360001896912
4.10999999999999 14541.454874770934
4.13999999999999 14476.892423328587
4.16999999999999 14451.872006989728
4.19999999999999 14466.347996989425
4.229999999999991 14516.291983952528
4.259999999999991 14594.342716540243
4.289999999999991 14690.753749843785
4.319999999999991 14794.524960500377
4.349999999999992 14894.591874901951
4.379999999999992 14980.94850099827
4.409999999999992 15045.59381013023
4.439999999999992 15083.216541356793
4.469999999999993 15091.564878373472
4.499999999999993 15071.482863993553
4.529999999999993 15026.630725735024
4.559999999999993 14962.936814216035
4.589999999999994 14887.854002862585
4.619999999999994 14809.508236606838
4.649999999999994 14735.83294267278
4.679999999999994 14673.778176776792
4.709999999999995 14628.669780152333
4.739999999999995 14603.774529540673
4.769999999999995 14600.102322318597
4.799999999999995 14616.449690506832
4.829999999999996 14649.66540182955
4.859999999999996 14695.096689728156
4.889999999999996 14747.158861115862
4.919999999999996 14799.962024274435
4.949999999999997 14847.92751390062
4.979999999999997 14886.332010830578
5.009999999999997 14911.72883320125
5.039999999999997 14922.21166698102
5.069999999999998 14917.504521488656
5.099999999999998 14898.880545229717
5.129999999999998 14868.929022073013
5.159999999999998 14831.204921831915
5.189999999999999 14789.804228080051
5.219999999999999 14748.9132470635
5.249999999999999 14712.3794915682
5.279999999999999 14683.346346280285
5.31 14663.983469037288
5.34 14655.334361306788
5.37 14657.288841977781
5.4 14668.674029597554
5.430000000000001 14687.446022910586
5.460000000000001 14710.956467840264
5.490000000000001 14736.261602927501
5.520000000000001 14760.439531378808
5.550000000000002 14780.882303982147
5.580000000000002 14795.535857234123
5.610000000000002 14803.0676428011
5.640000000000002 14802.949562467504
5.670000000000003 14795.45414178332
5.700000000000003 14781.570362532617
5.730000000000003 14762.853565933217
5.760000000000003 14741.229131833676
5.790000000000004 14718.773392791558
5.820000000000004 14697.495417306985
5.850000000000004 14679.140849118743
5.880000000000004 14665.036347908786
5.910000000000005 14655.987200959315
5.940000000000005 14652.234471653563
5.970000000000005 14653.471899752303
6.000000000000005 14658.915902895162
6.030000000000006 14667.418213429613
6.060000000000006 14677.606630837474
6.090000000000006 14688.03729146416
6.120000000000006 14697.342661703751
6.150000000000007 14704.361198606759
6.180000000000007 14708.237124613232
6.210000000000007 14708.482656401551
6.240000000000007 14704.999327993526
6.270000000000008 14698.059324164322
6.300000000000008 14688.251799982781
6.330000000000008 14676.402066657793
6.360000000000008 14663.47365740275
6.390000000000009 14650.464010842934
6.420000000000009 14638.30451878398
6.450000000000009 14627.774410304057
6.480000000000009 14619.435809990586
6.51000000000001 14613.594633003646
6.54000000000001 14610.289669227936
6.57000000000001 14609.308507057865
6.60000000000001 14610.225459932813
6.6300000000000106 14612.455250764195
6.660000000000011 14615.321640323738
6.690000000000011 14618.129826008566
6.720000000000011 14620.235044915033
6.7500000000000115 14621.101253534904
6.780000000000012 14620.345209393228
6.810000000000012 14617.762510588573
6.840000000000012 14613.334981604394
6.8700000000000125 14607.218941711852
6.900000000000013 14599.718990721012
6.930000000000013 14591.249755548064
6.960000000000013 14582.289316124063
6.9900000000000135 14573.329583332361
7.020000000000014 14564.82850868073
7.050000000000014 14557.168651242697
7.080000000000014 14550.625538843375
7.1100000000000145 14545.347754571349
7.140000000000015 14541.350427692847
7.170000000000015 14538.522007555832
7.200000000000015 14536.642377162712
7.2300000000000155 14535.409868545714
7.260000000000016 14534.47444939099
7.290000000000016 14533.47366978418
7.320000000000016 14532.067898391742
7.3500000000000165 14529.971427374248
7.380000000000017 14526.976690013504
7.410000000000017 14522.969824218548
7.440000000000017 14517.936924984788
7.4700000000000175 14511.960462029794
7.500000000000018 14505.206437609035
7.530000000000018 14497.904382800032
7.560000000000018 14490.322694499977
7.5900000000000185 14482.741154515023
7.620000000000019 14475.423261565704
7.650000000000019 14468.591072688985
7.680000000000019 14462.40522378623
7.7100000000000195 14456.952178375035
7.74000000000002 14452.239562527615
7.77000000000002 14448.198768877097
7.80000000000002 14444.694091705001
7.8300000000000205 14441.538946475255
7.860000000000021 14438.516358981022
7.890000000000021 14435.40175750143
7.920000000000021 14431.985492128693
7.9500000000000215 14428.093115086798
7.980000000000022 14423.601243487172
8.010000000000021 14418.448389802
8.04000000000002 14412.638883023268
8.07000000000002 14406.23946831633
8.10000000000002 14399.369745126814
8.130000000000019 14392.187692202466
8.160000000000018 14384.871970824972
8.190000000000017 14377.603206351701
8.220000000000017 14370.545988154856
8.250000000000016 14363.833461187964
8.280000000000015 14357.554821447733
8.310000000000015 14351.74672601651
8.340000000000014 14346.390070892823
8.370000000000013 14341.416551495777
8.400000000000013 14336.718652716881
8.430000000000012 14332.159694598948
8.460000000000012 14327.588857534087
8.49000000000001 14322.857713578804
8.52000000000001 14317.835048531811
8.55000000000001 14312.419968692866
8.580000000000009 14306.552276451761
8.610000000000008 14300.218055314657
8.640000000000008 14293.449718412287
8.670000000000007 14286.32054321709
8.700000000000006 14278.935128234443
8.730000000000006 14271.416592729283
8.760000000000005 14263.893302500393
8.790000000000004 14256.484830496007
8.820000000000004 14249.289404366766
8.850000000000003 14242.374369894138
8.880000000000003 14235.770074412503
8.910000000000002 14229.467985541936
8.940000000000001 14223.422977414168
8.97 14217.559471889344
9.0 14211.781599300413
9.03 14205.984045939927
9.059999999999999 14200.063604244631
9.089999999999998 14193.930105045538
9.119999999999997 14187.515731252217
9.149999999999997 14180.781699698226
9.179999999999996 14173.721309348794
9.209999999999996 14166.359283958274
9.239999999999995 14158.747867438353
9.269999999999994 14150.959746437282
9.299999999999994 14143.079118019941
9.329999999999993 14135.19281464599
9.359999999999992 14127.380432304159
9.389999999999992 14119.705728018169
9.419999999999991 14112.210343292534
9.44999999999999 14104.910062991494
9.47999999999999 14097.794113440737
9.50999999999999 14090.827344844809
9.539999999999988 14083.954857414617
9.569999999999988 14077.109053233333
9.599999999999987 14070.217817299244
9.629999999999987 14063.212838943844
9.659999999999986 14056.036649867205
9.689999999999985 14048.64804940523
9.719999999999985 14041.026012685827
9.749999999999984 14033.17089686589
9.779999999999983 14025.10338072822
9.809999999999983 14016.860703139888
9.839999999999982 14008.4922215226
9.869999999999981 14000.05342641147
9.89999999999998 13991.599296926106
9.92999999999998 13983.177701085562
9.95999999999998 13974.824907902326
9.989999999999979 13966.562417807943
10.019999999999978 12753.11035219437
10.049999999999978 9958.535090476678
10.079999999999977 6024.227945893414
10.109999999999976 1499.404090206347
10.139999999999976 -3030.738629668067
10.169999999999975 -7018.9516877428705
10.199999999999974 -10020.5899861858
10.229999999999974 -11740.854960046458
10.259999999999973 -12059.926374365414
10.289999999999973 -11034.741504810547
10.319999999999972 -8879.284375278114
10.349999999999971 -5927.635344221953
10.37999999999997 -2585.6132782604354
10.40999999999997 722.4387177898233
10.43999999999997 3605.2259126816175
10.469999999999969 5748.622464874542
10.499999999999968 6947.749896592079
10.529999999999967 7124.024355592665
10.559999999999967 6326.04611912085
10.589999999999966 4715.18317385086
10.619999999999965 2538.489552123781
10.649999999999965 93.0637490868853
10.679999999999964 -2313.1910993037395
10.709999999999964 -4399.29616376616
10.739999999999963 -5942.857202039181
10.769999999999962 -6802.2293316586865
10.799999999999962 -6927.247296555038
10.829999999999961 -6358.160687251402
10.85999999999996 -5213.909968957
10.88999999999996 -3672.0132763752563
10.919999999999959 -1943.1500434791378
10.949999999999958 -243.85145989464732
10.979999999999958 1229.3507985244487
11.009999999999957 2321.4153447267786
11.039999999999957 2933.7451119337684
11.069999999999956 3031.358321732781
11.099999999999955 2642.026243970963
11.129999999999955 1848.1120890024813
11.159999999999954 772.6317720429713
11.189999999999953 -438.3435422341919
11.219999999999953 -1634.5750771042126
11.249999999999952 -2679.49430414427
11.279999999999951 -3464.9764073632814
11.30999999999995 -3921.5703450323304
11.33999999999995 -4023.374624573635
11.36999999999995 -3787.4445696908624
11.399999999999949 -3268.2754152077305
11.429999999999948 -2548.414973838686
11.459999999999948 -1726.6328411262123
11.489999999999947 -905.2173383852429
11.519999999999946 -177.94257374633293
11.549999999999946 379.9637912151842
11.579999999999945 718.8682004064225
11.609999999999944 818.2396464432409
11.639999999999944 686.5190954923335
11.669999999999943 357.685883470169
11.699999999999942 -114.80283812324392
11.729999999999942 -665.7655048752141
11.759999999999941 -1226.7064312760804
11.78999999999994 -1733.8660986950617
11.81999999999994 -2135.0220736053716
11.84999999999994 -2394.376515845163
11.879999999999939 -2495.1460807649664
11.909999999999938 -2439.7683901876662
11.939999999999937 -2247.9220405934316
11.969999999999937 -1952.7784142718774
11.999999999999936 -1596.0776942968814
12.029999999999935 -1222.693996956859
12.059999999999935 -875.3503969045202
12.089999999999934 -590.0629699791643
12.119999999999933 -392.7588291689474
12.149999999999933 -297.3349763639129
12.179999999999932 -305.2355898537507
12.209999999999932 -406.44579972650604
12.239999999999931 -581.6595890062622
12.26999999999993 -805.260356217057
12.29999999999993 -1048.708745635546
12.329999999999929 -1283.9231383852411
12.359999999999928 -1486.2862363307154
12.389999999999928 -1636.9860218736208
12.419999999999927 -1724.499837963821
12.449999999999926 -1745.1436598945506
12.479999999999926 -1702.7198705847227
12.509999999999925 -1607.3919071277633
12.539999999999925 -1473.9895085568432
12.569999999999924 -1319.9825744639745
12.599999999999923 -1163.3776455637753
12.629999999999923 -1020.769747323635
12.659999999999922 -905.7413939358582
12.689999999999921 -827.7402811501246
12.71999999999992 -791.5024596892536
12.74999999999992 -797.0231465499911
12.77999999999992 -840.0190197259731
12.809999999999919 -912.7799554671847
12.839999999999918 -1005.2828612122833
12.869999999999918 -1106.4263117350079
12.899999999999917 -1205.249415561217
12.929999999999916 -1292.0147180887582
12.959999999999916 -1359.0606646512992
12.989999999999915 -1401.3645959495639
13.019999999999914 -1416.7910870253575
13.049999999999914 -1406.034448045819
13.079999999999913 -1372.293887970149
13.109999999999912 -1320.739172781346
13.139999999999912 -1257.8395334506426
13.169999999999911 -1190.6335175756026
13.19999999999991 -1126.0137565768641
13.22999999999991 -1070.089423066041
13.25999999999991 -1027.6771148357125
13.289999999999909 -1001.9534444547279
13.319999999999908 -994.2842819124282
13.349999999999907 -1004.2317567174204
13.379999999999907 -1029.7222994397316
13.409999999999906 -1067.3504868415314
13.439999999999905 -1112.7816689728268
13.469999999999905 -1161.2117317349368
13.499999999999904 -1207.8393004234183
13.529999999999903 -1248.310966236643
13.559999999999903 -1279.1002270246597
13.589999999999902 -1297.7917804843667
13.619999999999902 -1303.2513574976865
13.6499999999999 -1295.6701998233716
13.6799999999999 -1276.4866172992442
13.7099999999999 -1248.1956916410245
13.739999999999899 -1214.0676011345233
13.769999999999898 -1177.804530184427
13.799999999999898 -1143.1673869623653
13.829999999999897 -1113.610417034572
13.859999999999896 -1091.9549541168942
13.889999999999896 -1080.1326967476152
13.919999999999895 -1079.0239273382847
13.949999999999894 -1088.40302429634
13.979999999999894 -1106.995319209628
14.009999999999893 -1132.637243256388
14.039999999999893 -1162.5219252183883
14.069999999999892 -1193.5033585991664
14.099999999999891 -1222.4270320894452
14.12999999999989 -1246.4548159300332
14.15999999999989 -1263.349621161676
14.18999999999989 -1271.6888634917038
14.219999999999889 -1270.989843009525
14.249999999999888 -1261.734617667053
14.279999999999887 -1245.2905063989183
14.309999999999887 -1223.7397838588956
14.339999999999886 -1199.638779308439
14.369999999999886 -1175.731215045728
14.399999999999885 -1154.6492533844787
14.429999999999884 -1138.6352497294354
14.459999999999884 -1129.313114954117
14.489999999999883 -1127.5321527312321
14.519999999999882 -1133.2991866995176
14.549999999999882 -1145.803796919632
14.579999999999881 -1163.531428879012
14.60999999999988 -1184.4509436497756
14.63999999999988 -1206.2534343139728
14.66999999999988 -1226.6133584072181
14.699999999999878 -1243.4438326581285
14.729999999999878 -1255.117188609041
14.759999999999877 -1260.6278498898475
14.789999999999877 -1259.6807518976723
14.819999999999876 -1252.6993586767885
14.849999999999875 -1240.7531013137457
14.879999999999875 -1225.4157694023754
14.909999999999874 -1208.57251378518
14.939999999999873 -1192.1988654871857
14.969999999999873 -1178.1386783348457
14.999999999999872 -1167.9047314266236
15.029999999999871 -1162.5234392114812
15.05999999999987 -1162.4390521431037
15.08999999999987 -1167.4865212717727
15.11999999999987 -1176.9351033742485
15.149999999999869 -1189.5933848921845
15.179999999999868 -1203.9609843840806
15.209999999999868 -1218.4097217599463
15.239999999999867 -1231.3719308036098
15.269999999999866 -1241.511571260157
15.299999999999866 -1247.863171482654
15.329999999999865 -1249.9249733578959
15.359999999999864 -1247.6959154329807
15.389999999999864 -1241.6539831059451
15.419999999999863 -1232.6816137571564
15.449999999999863 -1221.949053906921
15.479999999999862 -1210.7702683743935
15.509999999999861 -1200.4482123061625
15.53999999999986 -1192.129302112189
15.56999999999986 -1186.6814019814553
15.59999999999986 -1184.6098162588116
15.629999999999859 -1186.0159325162367
15.659999999999858 -1190.6057657849747
15.689999999999857 -1197.7415832279958
15.719999999999857 -1206.5296072715366
15.749999999999856 -1215.9314722610363
15.779999999999855 -1224.8889038993261
15.809999999999855 -1232.4439249636678
15.839999999999854 -1237.8416766943915
15.869999999999854 -1240.6052094717706
15.899999999999853 -1240.5760039216846
15.929999999999852 -1237.9160954798842
15.959999999999852 -1233.073880394121
15.989999999999851 -1226.7183558253882
16.01999999999985 -1219.652467460194
16.04999999999985 -1212.7160554872341
16.079999999999853 -1206.6884423740119
