# Results for "element" with Id # 2043612 for search config "initial" at position: x0: -4.94210526316; y0: 0; z0: 249.9998
# time PRESSURE
0.03 1352.8387618112952
0.06 3868.7598788373584
0.09 7266.378722154458
0.12 11198.80469317952
0.15 15286.328550372124
0.18 19151.205053201265
0.21 22451.132311213438
0.24 24908.567859902483
0.27 26333.47330209302
0.30000000000000004 26637.614734348015
0.33000000000000007 25839.23587687071
0.3600000000000001 24057.764834038906
0.3900000000000001 21499.166173886282
0.42000000000000015 18433.497790542056
0.4500000000000002 15167.046114927713
0.4800000000000002 12011.966802430836
0.5100000000000002 9256.557895838567
0.5400000000000003 7139.11058769075
0.5700000000000003 5827.758888194027
0.6000000000000003 5407.977823673857
0.6300000000000003 5878.492727419508
0.6600000000000004 7155.479540147002
0.6900000000000004 9084.16799048186
0.7200000000000004 11456.360114809453
0.7500000000000004 14031.975286257182
0.7800000000000005 16562.518899592258
0.8100000000000005 18814.32849335896
0.8400000000000005 20589.559206380272
0.8700000000000006 21743.117520440344
0.9000000000000006 22194.13245920528
0.9300000000000006 21931.05034233678
0.9600000000000006 21010.03234243987
0.9900000000000007 19546.976140468643
1.0200000000000007 17704.101289419057
1.0500000000000007 15672.577131156646
1.0800000000000007 13653.039270319736
1.1100000000000008 11836.00428589158
1.1400000000000008 10384.124638539797
1.1700000000000008 9417.946649589694
1.2000000000000008 9006.388865998666
1.2300000000000009 9162.616570979484
1.260000000000001 9845.416076776808
1.290000000000001 10965.642968720525
1.320000000000001 12396.868829792498
1.350000000000001 13989.023120192967
1.380000000000001 15583.625121880244
1.410000000000001 17029.13051813645
1.440000000000001 18194.972084716075
1.470000000000001 18983.04353467377
1.500000000000001 19335.647441721154
1.5300000000000011 19239.27988003153
1.5600000000000012 18724.033922417042
1.5900000000000012 17858.827430492
1.6200000000000012 16743.06942385307
1.6500000000000012 15495.711442102598
1.6800000000000013 14242.866466203408
1.7100000000000013 13105.277871939712
1.7400000000000013 12186.883529167173
1.7700000000000014 11565.551728610788
1.8000000000000014 11286.792775562797
1.8300000000000014 11360.911483065987
1.8600000000000014 11763.701424087123
1.8900000000000015 12440.432493767948
1.9200000000000015 13312.582020411877
1.9500000000000015 14286.530370131699
1.9800000000000015 15263.297249768006
2.0100000000000016 16148.343427819564
2.0400000000000014 16860.49981206822
2.070000000000001 17339.20681551278
2.100000000000001 17549.438477547792
2.130000000000001 17483.92970423216
2.1600000000000006 17162.599338299136
2.1900000000000004 16629.340468281905
2.22 15946.60335550552
2.25 15188.400825401837
2.28 14432.499404375598
2.3099999999999996 13752.609163484118
2.3399999999999994 13211.348219555282
2.369999999999999 12854.642973319867
2.399999999999999 12708.047823682917
2.429999999999999 12775.251478176457
2.4599999999999986 13038.806521740646
2.4899999999999984 13462.897313540692
2.5199999999999982 13997.772021077159
2.549999999999998 14585.322034150711
2.579999999999998 15165.206202967534
2.6099999999999977 15680.894064751903
2.6399999999999975 16085.039691853604
2.6699999999999973 16343.689642625593
2.699999999999997 16438.964877225964
2.729999999999997 16370.02256489406
2.7599999999999967 16152.282604616465
2.7899999999999965 15815.077691489687
2.8199999999999963 15398.036826950454
2.849999999999996 14946.624992030404
2.879999999999996 14507.32750893548
2.9099999999999957 14122.979385409497
2.9399999999999955 13828.700047271477
2.9699999999999953 13648.80908543899
2.999999999999995 13594.979905710874
3.029999999999995 13665.750370890122
3.0599999999999947 13847.36696896025
3.0899999999999945 14115.807839698584
3.1199999999999943 14439.720198453937
3.149999999999994 14783.93206594861
3.179999999999994 15113.15831826256
3.2099999999999937 15395.521786249865
3.2399999999999936 15605.547956797784
3.2699999999999934 15726.361530338147
3.299999999999993 15750.906698496716
3.329999999999993 15682.119521179146
3.3599999999999928 15532.090102347687
3.3899999999999926 15320.35154092166
3.4199999999999924 15071.51473823643
3.449999999999992 14812.521947167179
3.479999999999992 14569.816779711442
3.509999999999992 14366.720559646164
3.5399999999999916 14221.268245939242
3.5699999999999914 14144.696598165254
3.599999999999991 14140.700693521754
3.629999999999991 14205.490552354499
3.659999999999991 14328.597085080399
3.6899999999999906 14494.304291914968
3.7199999999999904 14683.527751365129
3.7499999999999902 14875.925421956848
3.77999999999999 15052.014767905712
3.80999999999999 15195.082542027554
3.8399999999999896 15292.706319131368
3.8699999999999894 15337.756182711284
3.8999999999999893 15328.80480124142
3.929999999999989 15269.938244998017
3.959999999999989 15170.021013355663
3.9899999999999887 15041.520922076554
4.019999999999989 14899.038699316676
4.049999999999989 14757.708202109545
4.079999999999989 14631.6372106501
4.10999999999999 14532.544514693547
4.13999999999999 14468.719955854243
4.16999999999999 14444.393726086446
4.19999999999999 14459.554485170831
4.229999999999991 14510.20767214782
4.259999999999991 14589.0217944026
4.289999999999991 14686.273123834748
4.319999999999991 14790.975209974426
4.349999999999992 14892.067299624217
4.379999999999992 14979.537382442182
4.409999999999992 15045.369923816237
4.439999999999992 15084.232767004776
4.469999999999993 15093.849479185186
4.499999999999993 15075.038688442646
4.529999999999993 15031.437239101131
4.559999999999993 14968.954594246521
4.589999999999994 14895.031099537158
4.619999999999994 14817.787610135476
4.649999999999994 14745.160016560776
4.679999999999994 14684.107599872146
4.709999999999995 14639.970751712326
4.739999999999995 14616.03418680457
4.769999999999995 14613.326880765782
4.799999999999995 14630.66357674737
4.829999999999996 14664.908604738817
4.859999999999996 14711.420451161799
4.889999999999996 14764.620282817878
4.919999999999996 14818.618311665823
4.949999999999997 14867.830523929753
4.979999999999997 14907.523718614682
5.009999999999997 14934.238170179015
5.039999999999997 14946.053005036429
5.069999999999998 14942.677855163769
5.099999999999998 14925.373239622033
5.129999999999998 14896.718858509665
5.159999999999998 14860.264024544224
5.189999999999999 14820.103407815082
5.219999999999999 14780.426254630202
5.249999999999999 14745.086685983842
5.279999999999999 14717.237248532838
5.31 14699.058256029488
5.34 14691.60409059235
5.37 14694.774200855632
5.4 14707.40306054079
5.430000000000001 14727.451237417963
5.460000000000001 14752.271637445103
5.490000000000001 14778.918482392657
5.520000000000001 14804.464858699384
5.550000000000002 14826.295834489698
5.580000000000002 14842.34947887751
5.610000000000002 14851.285316328092
5.640000000000002 14852.568143611952
5.670000000000003 14846.464924615948
5.700000000000003 14833.961052964585
5.730000000000003 14816.610509276636
5.760000000000003 14796.339644636628
5.790000000000004 14775.22774212841
5.820000000000004 14755.287963155619
5.850000000000004 14738.270681175432
5.880000000000004 14725.507457961627
5.910000000000005 14717.808226631802
5.940000000000005 14715.417983972624
5.970000000000005 14718.033234405892
6.000000000000005 14724.871750133621
6.030000000000006 14734.784988380372
6.060000000000006 14746.398589304363
6.090000000000006 14758.265083059943
6.120000000000006 14769.012548942173
6.150000000000007 14777.474857300926
6.180000000000007 14782.791937909324
6.210000000000007 14784.472421247383
6.240000000000007 14782.415292265643
6.270000000000008 14776.891470984008
6.300000000000008 14768.49019705736
6.330000000000008 14758.03797952359
6.360000000000008 14746.500307539947
6.390000000000009 14734.877049799861
6.420000000000009 14724.102200753043
6.450000000000009 14714.95738676828
6.480000000000009 14708.00653634937
6.51000000000001 14703.556356088251
6.54000000000001 14701.644929993323
6.57000000000001 14702.056798543628
6.60000000000001 14704.361978489838
6.6300000000000106 14707.97352747361
6.660000000000011 14712.21488275377
6.690000000000011 14716.39103149136
6.720000000000011 14719.856272915216
6.7500000000000115 14722.072898833836
6.780000000000012 14722.655283015627
6.810000000000012 14721.397400671773
6.840000000000012 14718.28047172804
6.8700000000000125 14713.462345436881
6.900000000000013 14707.250264462897
6.930000000000013 14700.061148710189
6.960000000000013 14692.374688790818
6.9900000000000135 14684.68362954481
7.020000000000014 14677.446131355331
7.050000000000014 14671.044511774455
7.080000000000014 14665.753744161415
7.1100000000000145 14661.72213269006
7.140000000000015 14658.96455946872
7.170000000000015 14657.36876721978
7.200000000000015 14656.71361995045
7.2300000000000155 14656.696009374586
7.260000000000016 14656.96383719581
7.290000000000016 14657.152257968995
7.320000000000016 14656.919445438778
7.3500000000000165 14655.978101806053
7.380000000000017 14654.120031453684
7.410000000000017 14651.231732455166
7.440000000000017 14647.30034450412
7.4700000000000175 14642.409694555561
7.500000000000018 14636.72760644553
7.530000000000018 14630.485511706709
7.560000000000018 14623.952454952152
7.5900000000000185 14617.407225892452
7.620000000000019 14611.111884555632
7.650000000000019 14605.288041764183
7.680000000000019 14600.097528576714
7.7100000000000195 14595.628665059729
7.74000000000002 14591.889789821598
7.77000000000002 14588.811974393317
7.80000000000002 14586.259157843513
7.8300000000000205 14584.044395541008
7.860000000000021 14581.950397752795
7.890000000000021 14579.752064424225
7.920000000000021 14577.239262204625
7.9500000000000215 14574.23753603744
7.980000000000022 14570.623999483243
8.010000000000021 14566.337527148024
8.04000000000002 14561.382422672586
8.07000000000002 14555.825611226413
8.10000000000002 14549.787541795185
8.130000000000019 14543.428207622324
8.160000000000018 14536.928869234736
8.190000000000017 14530.471667298905
8.220000000000017 14524.222321409545
8.250000000000016 14518.31396727847
8.280000000000015 14512.834456829707
8.310000000000015 14507.819238379192
8.340000000000014 14503.249679791777
8.370000000000013 14499.056634917051
8.400000000000013 14495.129070625942
8.430000000000012 14491.327101783338
8.460000000000012 14487.497716052147
8.49000000000001 14483.491107799762
8.52000000000001 14479.17713903152
8.55000000000001 14474.458295316803
8.580000000000009 14469.27830611421
8.610000000000008 14463.626258350228
8.640000000000008 14457.536033063237
8.670000000000007 14451.080916662955
8.700000000000006 14444.365164754836
8.730000000000006 14437.513608784084
8.760000000000005 14430.656493321498
8.790000000000004 14423.915513097427
8.820000000000004 14417.39189357358
8.850000000000003 14411.152553791017
8.880000000000003 14405.223916352916
8.910000000000002 14399.593589113036
8.940000000000001 14394.216356427
8.97 14389.021226648092
9.0 14383.908742129262
9.03 14378.767509389883
9.059999999999999 14373.49041987301
9.089999999999998 14367.985632812935
9.119999999999997 14362.1848657914
9.149999999999997 14356.049433905033
9.179999999999996 14349.573329406767
9.209999999999996 14342.782291747631
9.239999999999995 14335.729633418072
9.269999999999994 14328.488952709407
9.299999999999994 14321.146416192207
9.329999999999993 14313.788961146507
9.359999999999992 14306.496032909761
9.389999999999992 14299.33114503317
9.419999999999991 14292.335169014903
9.44999999999999 14285.522935518205
9.47999999999999 14278.882668281234
9.50999999999999 14272.378272854909
9.539999999999988 14265.954014053925
9.569999999999988 14259.54166555593
9.599999999999987 14253.068669518569
9.629999999999987 14246.466469166715
9.659999999999986 14239.67757798352
9.689999999999985 14232.660899053613
9.719999999999985 14225.39558985597
9.749999999999984 14217.88216236948
9.779999999999983 14210.141375191068
9.809999999999983 14202.21025395947
9.839999999999982 14194.13790202885
9.869999999999981 14185.97972747181
9.89999999999998 14177.790912338887
9.92999999999998 14169.619793993743
9.95999999999998 14161.503527781686
9.989999999999979 14153.46501110075
10.019999999999978 12946.16212646928
10.049999999999978 10165.372231602916
10.079999999999977 6249.8212739352475
10.109999999999976 1745.2366644734386
10.139999999999976 -2766.8118174107512
10.169999999999975 -6742.065818190334
10.199999999999974 -9737.619743747533
10.229999999999974 -11458.911933058902
10.259999999999973 -11785.008359547695
10.289999999999973 -10770.843898121584
10.319999999999972 -8628.094300252236
10.349999999999971 -5688.736008030701
10.37999999999997 -2357.0056798298906
10.40999999999997 943.7123214946122
10.43999999999997 3822.516801458635
10.469999999999969 5965.241142510408
10.499999999999968 7166.662792341897
10.529999999999967 7347.639299679211
10.559999999999967 6556.047429750972
10.589999999999966 4952.402709971517
10.619999999999965 2782.829837039078
10.649999999999965 343.50507034763916
10.679999999999964 -2058.471990699479
10.709999999999964 -4142.69081918319
10.739999999999963 -5686.999823789365
10.769999999999962 -6549.630266917258
10.799999999999962 -6679.94767061835
10.829999999999961 -6117.470314160328
10.85999999999996 -4980.269683224876
10.88999999999996 -3444.995750120219
10.919999999999959 -1721.5921136924119
10.949999999999958 -26.0867722347728
10.979999999999958 1445.2046957975629
11.009999999999957 2537.164865563194
11.039999999999957 3150.867832755497
11.069999999999956 3250.822307024675
11.099999999999955 2864.200498689523
11.129999999999955 2072.7703015503507
11.159999999999954 999.039139241022
11.189999999999953 -211.28173306881203
11.219999999999953 -1408.1309565952192
11.249999999999952 -2454.93015629114
11.279999999999951 -3243.3788234765498
11.30999999999995 -3703.725694976704
11.33999999999995 -3809.697315132218
11.36999999999995 -3577.9615020608103
11.399999999999949 -3062.6613377747885
11.429999999999948 -2346.068543618187
11.459999999999948 -1526.7793928621804
11.489999999999947 -707.0225118053273
11.519999999999946 19.378014950495864
11.549999999999946 577.0513162846892
11.579999999999945 916.1534204625343
11.609999999999944 1015.9072789448699
11.639999999999944 884.5056441221635
11.669999999999943 555.7081673952412
11.699999999999942 82.80594058359452
11.729999999999942 -469.11514279092023
11.759999999999941 -1031.5778885036173
11.78999999999994 -1540.7675982909554
11.81999999999994 -1944.3461979963479
11.84999999999994 -2206.3594585449996
11.879999999999939 -2309.850063860193
11.909999999999938 -2257.0871842712468
11.939999999999937 -2067.6080965729902
11.969999999999937 -1774.4859640255645
11.999999999999936 -1419.4146379554456
12.029999999999935 -1047.2758176206535
12.059999999999935 -700.8494834354678
12.089999999999934 -416.24631798929806
12.119999999999933 -219.51016848594716
12.149999999999933 -124.65998120412556
12.179999999999932 -133.25104477427993
12.209999999999932 -235.35540584692032
12.239999999999931 -411.72087728250483
12.26999999999993 -636.7478194979949
12.29999999999993 -881.8779270644303
12.329999999999929 -1118.9787319808866
12.359999999999928 -1323.358848901286
12.389999999999928 -1476.1209109048932
12.419999999999927 -1565.6577867629626
12.449999999999926 -1588.2125383089565
12.479999999999926 -1547.533977140883
12.509999999999925 -1453.756255434349
12.539999999999925 -1321.7055209064329
12.569999999999924 -1168.871981514575
12.599999999999923 -1013.301629642804
12.629999999999923 -871.641498804789
12.659999999999922 -757.5309260945531
12.689999999999921 -680.4715383559484
12.71999999999992 -645.2436118682807
12.74999999999992 -651.8718432888074
12.77999999999992 -696.0852575247357
12.809999999999919 -770.168725090024
12.839999999999918 -864.0784394272521
12.869999999999918 -966.6801863009672
12.899999999999917 -1066.9732243408796
12.929999999999916 -1155.1787043900126
12.959999999999916 -1223.597250790038
12.989999999999915 -1267.1762050029133
13.019999999999914 -1283.7609205830101
13.049999999999914 -1274.0387999972093
13.079999999999913 -1241.2145389095283
13.109999999999912 -1190.4741475262258
13.139999999999912 -1128.3107521938257
13.169999999999911 -1061.7905889186072
13.19999999999991 -997.8338756986484
13.22999999999991 -942.5736577824533
13.25999999999991 -900.8438786370438
13.289999999999909 -875.8303369844929
13.319999999999908 -868.899384177103
13.349999999999907 -879.6055917743887
13.379999999999907 -905.8614450990659
13.409999999999906 -944.2436286509582
13.439999999999905 -990.3985118087057
13.469999999999905 -1039.504574791475
13.499999999999904 -1086.7465860923637
13.529999999999903 -1127.7625039240932
13.559999999999903 -1159.0230697838324
13.589999999999902 -1178.115925445534
13.619999999999902 -1183.914808603087
13.6499999999999 -1176.6227010577145
13.6799999999999 -1157.6917627867545
13.7099999999999 -1129.6309757198826
13.739999999999899 -1095.7223509044504
13.769999999999898 -1059.676581155416
13.799999999999898 -1025.2590141792168
13.829999999999897 -995.9243771746715
13.859999999999896 -974.4909400945699
13.889999999999896 -962.884181605616
13.919999999999895 -961.9761706222843
13.949999999999894 -971.5324721113083
13.979999999999894 -990.2702582406152
14.009999999999893 -1016.0187966484732
14.039999999999893 -1045.9658641392434
14.069999999999892 -1076.9630261581165
14.099999999999891 -1105.8562468051339
14.12999999999989 -1129.8106708843509
14.15999999999989 -1146.594800276791
14.18999999999989 -1154.7924452466566
14.219999999999889 -1153.9269250906864
14.249999999999888 -1144.4854545214876
14.279999999999887 -1127.8390465538941
14.309999999999887 -1106.0719089310942
14.339999999999886 -1081.7405464515764
14.369999999999886 -1057.5870845451475
14.399999999999885 -1036.240586901587
14.429999999999884 -1019.9391980016179
14.459999999999884 -1010.3021119315481
14.489999999999883 -1008.1738767818488
14.519999999999882 -1013.5570605654844
14.549999999999882 -1025.6378879806743
14.579999999999881 -1042.8999916064988
14.60999999999988 -1063.3124404202906
14.63999999999988 -1084.568687917138
14.66999999999988 -1104.3467397728184
14.699999999999878 -1120.5631476726485
14.729999999999878 -1131.5932493813293
14.759999999999877 -1136.4339236538833
14.789999999999877 -1134.7916779712564
14.819999999999876 -1127.090589546272
14.849999999999875 -1114.3997127614903
14.879999999999875 -1098.2915392062473
14.909999999999874 -1080.6491422328045
14.939999999999873 -1063.445313975234
14.969999999999873 -1048.5210063256711
14.999999999999872 -1037.3864353738454
15.029999999999871 -1031.066181817122
15.05999999999987 -1030.0034919862276
15.08999999999987 -1034.0330378626961
15.11999999999987 -1042.4247425960732
15.149999999999869 -1053.98903689445
15.179999999999868 -1067.2284847068195
15.209999999999868 -1080.518913830115
15.239999999999867 -1092.2974994982337
15.269999999999866 -1101.2329059072265
15.299999999999866 -1106.363778456202
15.329999999999865 -1107.1919716263199
15.359999999999864 -1103.7195861766775
15.389999999999864 -1096.4271343559992
15.419999999999863 -1086.1988161103568
15.449999999999863 -1074.206161155342
15.479999999999862 -1061.7642018479194
15.509999999999861 -1050.176775912707
15.53999999999986 -1040.5912820801
15.56999999999986 -1033.8768630951156
15.59999999999986 -1030.5403937225337
15.629999999999859 -1030.684644378522
15.659999999999858 -1034.017058057267
15.689999999999857 -1039.9011668430858
15.719999999999857 -1047.4442648100796
15.749999999999856 -1055.6085917683902
15.779999999999855 -1063.336585357831
15.809999999999855 -1069.6715060786912
15.839999999999854 -1073.8600663853415
15.869999999999854 -1075.4270450201843
15.899999999999853 -1074.2158324395996
15.929999999999852 -1070.39038948866
15.959999999999852 -1064.4006832511943
15.989999999999851 -1056.9164749312704
16.01999999999985 -1048.7407237310988
16.04999999999985 -1040.7130693388958
16.079999999999853 -1033.6125093127457
16.109999999999854 -1028.0744961050773
